# distance  frequency (bands are separated by blank lines)
# End points of segments: 
#   0.00000000 0.16310360 0.25727130 0.44560690 
0.000000 -0.020385
0.000820 0.009173
0.001639 0.039745
0.002459 0.063718
0.003279 0.086643
0.004098 0.109064
0.004918 0.131114
0.005737 0.152820
0.006557 0.174172
0.007377 0.195142
0.008196 0.215697
0.009016 0.235797
0.009835 0.255398
0.010655 0.274460
0.011475 0.292941
0.012294 0.310801
0.013114 0.328007
0.013933 0.344527
0.014753 0.360338
0.015573 0.375422
0.016392 0.389771
0.017212 0.403382
0.018031 0.416261
0.018851 0.428421
0.019671 0.439882
0.020490 0.450667
0.021310 0.460806
0.022130 0.470328
0.022949 0.479268
0.023769 0.487660
0.024588 0.495538
0.025408 0.502935
0.026228 0.509883
0.027047 0.516415
0.027867 0.522560
0.028687 0.528345
0.029506 0.533796
0.030326 0.538938
0.031145 0.543794
0.031965 0.548383
0.032785 0.552726
0.033604 0.556840
0.034424 0.560741
0.035243 0.564445
0.036063 0.567965
0.036883 0.571314
0.037702 0.574504
0.038522 0.577546
0.039342 0.580450
0.040161 0.583224
0.040981 0.585879
0.041800 0.588420
0.042620 0.590856
0.043440 0.593194
0.044259 0.595439
0.045079 0.597598
0.045899 0.599676
0.046718 0.601677
0.047538 0.603607
0.048357 0.605470
0.049177 0.607269
0.049997 0.609009
0.050816 0.610692
0.051636 0.612323
0.052455 0.613904
0.053275 0.615437
0.054095 0.616926
0.054914 0.618373
0.055734 0.619780
0.056553 0.621150
0.057373 0.622483
0.058193 0.623783
0.059012 0.625051
0.059832 0.626289
0.060652 0.627497
0.061471 0.628678
0.062291 0.629833
0.063110 0.630963
0.063930 0.632069
0.064750 0.633153
0.065569 0.634215
0.066389 0.635256
0.067209 0.636278
0.068028 0.637281
0.068848 0.638266
0.069667 0.639233
0.070487 0.640185
0.071307 0.641120
0.072126 0.642040
0.072946 0.642945
0.073765 0.643836
0.074585 0.644713
0.075405 0.645578
0.076224 0.646430
0.077044 0.647269
0.077864 0.648097
0.078683 0.648913
0.079503 0.649718
0.080322 0.650512
0.081142 0.651296
0.081962 0.652070
0.082781 0.652834
0.083601 0.653588
0.084420 0.654333
0.085240 0.655069
0.086060 0.655795
0.086879 0.656513
0.087699 0.657222
0.088518 0.657923
0.089338 0.658616
0.090158 0.659300
0.090977 0.659976
0.091797 0.660645
0.092617 0.661306
0.093436 0.661959
0.094256 0.662604
0.095075 0.663242
0.095895 0.663873
0.096715 0.664496
0.097534 0.665112
0.098354 0.665721
0.099173 0.666322
0.099993 0.666917
0.100813 0.667504
0.101632 0.668084
0.102452 0.668658
0.103272 0.669224
0.104091 0.669783
0.104911 0.670336
0.105730 0.670881
0.106550 0.671420
0.107370 0.671951
0.108189 0.672476
0.109009 0.672994
0.109828 0.673504
0.110648 0.674008
0.111468 0.674505
0.112287 0.674995
0.113107 0.675478
0.113927 0.675954
0.114746 0.676423
0.115566 0.676885
0.116386 0.677340
0.117205 0.677787
0.118025 0.678228
0.118844 0.678662
0.119664 0.679088
0.120483 0.679507
0.121303 0.679919
0.122123 0.680324
0.122942 0.680721
0.123762 0.681111
0.124582 0.681494
0.125401 0.681869
0.126221 0.682237
0.127041 0.682598
0.127860 0.682951
0.128680 0.683296
0.129499 0.683634
0.130319 0.683965
0.131138 0.684287
0.131958 0.684602
0.132778 0.684910
0.133597 0.685210
0.134417 0.685501
0.135237 0.685786
0.136056 0.686062
0.136876 0.686330
0.137695 0.686591
0.138515 0.686843
0.139335 0.687088
0.140154 0.687325
0.140974 0.687554
0.141793 0.687774
0.142613 0.687987
0.143433 0.688191
0.144252 0.688387
0.145072 0.688576
0.145892 0.688756
0.146711 0.688927
0.147531 0.689091
0.148350 0.689246
0.149170 0.689393
0.149990 0.689532
0.150809 0.689663
0.151629 0.689785
0.152449 0.689898
0.153268 0.690004
0.154088 0.690101
0.154907 0.690190
0.155727 0.690270
0.156547 0.690342
0.157366 0.690405
0.158186 0.690460
0.159005 0.690506
0.159825 0.690545
0.160645 0.690574
0.161464 0.690595
0.162284 0.690608
0.163104 0.690612

0.163104 0.690612
0.163577 0.690613
0.164050 0.690615
0.164523 0.690618
0.164996 0.690622
0.165470 0.690628
0.165943 0.690635
0.166416 0.690643
0.166889 0.690652
0.167362 0.690663
0.167836 0.690675
0.168309 0.690688
0.168782 0.690703
0.169255 0.690718
0.169728 0.690735
0.170202 0.690753
0.170675 0.690772
0.171148 0.690793
0.171621 0.690815
0.172095 0.690838
0.172568 0.690862
0.173041 0.690887
0.173514 0.690914
0.173987 0.690941
0.174460 0.690970
0.174934 0.691001
0.175407 0.691032
0.175880 0.691064
0.176353 0.691098
0.176826 0.691133
0.177300 0.691169
0.177773 0.691206
0.178246 0.691244
0.178719 0.691283
0.179193 0.691323
0.179666 0.691365
0.180139 0.691407
0.180612 0.691451
0.181085 0.691496
0.181559 0.691541
0.182032 0.691588
0.182505 0.691636
0.182978 0.691685
0.183451 0.691735
0.183925 0.691786
0.184398 0.691838
0.184871 0.691890
0.185344 0.691944
0.185817 0.691999
0.186291 0.692055
0.186764 0.692112
0.187237 0.692169
0.187710 0.692228
0.188183 0.692287
0.188657 0.692347
0.189130 0.692408
0.189603 0.692470
0.190076 0.692533
0.190549 0.692597
0.191023 0.692661
0.191496 0.692727
0.191969 0.692793
0.192442 0.692860
0.192915 0.692927
0.193389 0.692996
0.193862 0.693065
0.194335 0.693134
0.194808 0.693205
0.195281 0.693276
0.195755 0.693348
0.196228 0.693420
0.196701 0.693493
0.197174 0.693567
0.197648 0.693641
0.198121 0.693716
0.198594 0.693791
0.199067 0.693867
0.199540 0.693943
0.200014 0.694020
0.200487 0.694098
0.200960 0.694176
0.201433 0.694254
0.201906 0.694333
0.202380 0.694412
0.202853 0.694492
0.203326 0.694572
0.203799 0.694652
0.204272 0.694733
0.204746 0.694814
0.205219 0.694895
0.205692 0.694977
0.206165 0.695059
0.206638 0.695141
0.207112 0.695223
0.207585 0.695306
0.208058 0.695389
0.208531 0.695471
0.209004 0.695555
0.209478 0.695638
0.209951 0.695721
0.210424 0.695805
0.210897 0.695888
0.211370 0.695972
0.211844 0.696056
0.212317 0.696139
0.212790 0.696223
0.213263 0.696307
0.213736 0.696390
0.214210 0.696474
0.214683 0.696557
0.215156 0.696641
0.215629 0.696724
0.216103 0.696807
0.216576 0.696890
0.217049 0.696973
0.217522 0.697055
0.217995 0.697138
0.218469 0.697220
0.218942 0.697302
0.219415 0.697384
0.219888 0.697465
0.220361 0.697546
0.220835 0.697627
0.221308 0.697707
0.221781 0.697787
0.222254 0.697866
0.222727 0.697946
0.223201 0.698024
0.223674 0.698103
0.224147 0.698180
0.224620 0.698258
0.225093 0.698334
0.225567 0.698411
0.226040 0.698486
0.226513 0.698562
0.226986 0.698636
0.227459 0.698710
0.227933 0.698783
0.228406 0.698856
0.228879 0.698928
0.229352 0.698999
0.229825 0.699070
0.230299 0.699140
0.230772 0.699209
0.231245 0.699277
0.231718 0.699345
0.232191 0.699412
0.232665 0.699478
0.233138 0.699543
0.233611 0.699607
0.234084 0.699671
0.234558 0.699733
0.235031 0.699795
0.235504 0.699856
0.235977 0.699915
0.236450 0.699974
0.236924 0.700032
0.237397 0.700089
0.237870 0.700145
0.238343 0.700200
0.238816 0.700253
0.239290 0.700306
0.239763 0.700358
0.240236 0.700408
0.240709 0.700458
0.241182 0.700506
0.241656 0.700553
0.242129 0.700599
0.242602 0.700644
0.243075 0.700687
0.243548 0.700730
0.244022 0.700771
0.244495 0.700811
0.244968 0.700849
0.245441 0.700887
0.245914 0.700923
0.246388 0.700957
0.246861 0.700991
0.247334 0.701023
0.247807 0.701054
0.248280 0.701083
0.248754 0.701111
0.249227 0.701137
0.249700 0.701163
0.250173 0.701186
0.250646 0.701209
0.251120 0.701230
0.251593 0.701249
0.252066 0.701267
0.252539 0.701283
0.253012 0.701298
0.253486 0.701312
0.253959 0.701324
0.254432 0.701334
0.254905 0.701343
0.255379 0.701350
0.255852 0.701356
0.256325 0.701360
0.256798 0.701362
0.257271 0.701363

0.257271 0.701363
0.258218 0.701360
0.259164 0.701350
0.260111 0.701333
0.261057 0.701310
0.262003 0.701280
0.262950 0.701242
0.263896 0.701198
0.264843 0.701147
0.265789 0.701088
0.266735 0.701023
0.267682 0.700950
0.268628 0.700869
0.269575 0.700782
0.270521 0.700686
0.271467 0.700583
0.272414 0.700473
0.273360 0.700355
0.274307 0.700229
0.275253 0.700095
0.276199 0.699954
0.277146 0.699805
0.278092 0.699648
0.279039 0.699483
0.279985 0.699310
0.280932 0.699129
0.281878 0.698940
0.282824 0.698743
0.283771 0.698538
0.284717 0.698324
0.285664 0.698103
0.286610 0.697874
0.287556 0.697636
0.288503 0.697391
0.289449 0.697137
0.290396 0.696875
0.291342 0.696605
0.292289 0.696326
0.293235 0.696040
0.294181 0.695745
0.295128 0.695442
0.296074 0.695131
0.297021 0.694812
0.297967 0.694485
0.298913 0.694149
0.299860 0.693806
0.300806 0.693454
0.301753 0.693094
0.302699 0.692726
0.303645 0.692350
0.304592 0.691966
0.305538 0.691573
0.306485 0.691173
0.307431 0.690765
0.308378 0.690348
0.309324 0.689924
0.310270 0.689492
0.311217 0.689052
0.312163 0.688604
0.313109 0.688148
0.314056 0.687684
0.315002 0.687212
0.315949 0.686733
0.316895 0.686246
0.317842 0.685751
0.318788 0.685248
0.319734 0.684738
0.320681 0.684220
0.321627 0.683694
0.322574 0.683161
0.323520 0.682620
0.324466 0.682071
0.325413 0.681515
0.326359 0.680951
0.327306 0.680380
0.328252 0.679801
0.329199 0.679214
0.330145 0.678621
0.331091 0.678019
0.332038 0.677410
0.332984 0.676794
0.333931 0.676170
0.334877 0.675538
0.335823 0.674899
0.336770 0.674253
0.337716 0.673599
0.338663 0.672937
0.339609 0.672268
0.340555 0.671591
0.341502 0.670906
0.342448 0.670213
0.343395 0.669513
0.344341 0.668805
0.345288 0.668089
0.346234 0.667364
0.347180 0.666632
0.348127 0.665892
0.349073 0.665143
0.350019 0.664385
0.350966 0.663620
0.351912 0.662845
0.352859 0.662061
0.353805 0.661269
0.354752 0.660467
0.355698 0.659656
0.356644 0.658835
0.357591 0.658004
0.358537 0.657163
0.359484 0.656312
0.360430 0.655449
0.361376 0.654576
0.362323 0.653692
0.363269 0.652795
0.364216 0.651887
0.365162 0.650965
0.366109 0.650031
0.367055 0.649083
0.368001 0.648121
0.368948 0.647145
0.369894 0.646153
0.370841 0.645145
0.371787 0.644120
0.372733 0.643078
0.373680 0.642017
0.374626 0.640938
0.375573 0.639838
0.376519 0.638717
0.377465 0.637574
0.378412 0.636407
0.379358 0.635216
0.380305 0.633999
0.381251 0.632755
0.382198 0.631481
0.383144 0.630177
0.384090 0.628840
0.385037 0.627469
0.385983 0.626062
0.386929 0.624616
0.387876 0.623128
0.388822 0.621597
0.389769 0.620020
0.390715 0.618392
0.391662 0.616712
0.392608 0.614976
0.393554 0.613179
0.394501 0.611317
0.395447 0.609387
0.396394 0.607383
0.397340 0.605300
0.398286 0.603133
0.399233 0.600874
0.400179 0.598517
0.401126 0.596056
0.402072 0.593481
0.403019 0.590784
0.403965 0.587955
0.404911 0.584984
0.405858 0.581860
0.406804 0.578569
0.407751 0.575099
0.408697 0.571433
0.409643 0.567556
0.410590 0.563450
0.411536 0.559093
0.412483 0.554465
0.413429 0.549540
0.414375 0.544293
0.415322 0.538695
0.416268 0.532712
0.417215 0.526311
0.418161 0.519453
0.419107 0.512096
0.420054 0.504198
0.421000 0.495709
0.421947 0.486580
0.422893 0.476760
0.423839 0.466195
0.424786 0.454834
0.425732 0.442627
0.426679 0.429529
0.427625 0.415500
0.428571 0.400512
0.429518 0.384547
0.430464 0.367597
0.431411 0.349673
0.432357 0.330794
0.433304 0.310996
0.434250 0.290324
0.435196 0.268833
0.436143 0.246583
0.437089 0.223639
0.438036 0.200065
0.438982 0.175925
0.439929 0.151273
0.440875 0.126150
0.441821 0.100565
0.442768 0.074438
0.443714 0.047356
0.444661 0.015830
0.445607 -0.020385


0.000000 -0.020385
0.000820 0.009173
0.001639 0.039745
0.002459 0.063718
0.003279 0.086643
0.004098 0.109064
0.004918 0.131114
0.005737 0.152820
0.006557 0.174172
0.007377 0.195142
0.008196 0.215697
0.009016 0.235797
0.009835 0.255398
0.010655 0.274460
0.011475 0.292941
0.012294 0.310801
0.013114 0.328007
0.013933 0.344527
0.014753 0.360338
0.015573 0.375422
0.016392 0.389771
0.017212 0.403382
0.018031 0.416261
0.018851 0.428421
0.019671 0.439882
0.020490 0.450667
0.021310 0.460806
0.022130 0.470328
0.022949 0.479268
0.023769 0.487660
0.024588 0.495538
0.025408 0.502935
0.026228 0.509883
0.027047 0.516415
0.027867 0.522560
0.028687 0.528345
0.029506 0.533796
0.030326 0.538938
0.031145 0.543794
0.031965 0.548383
0.032785 0.552726
0.033604 0.556840
0.034424 0.560741
0.035243 0.564445
0.036063 0.567965
0.036883 0.571314
0.037702 0.574504
0.038522 0.577546
0.039342 0.580450
0.040161 0.583224
0.040981 0.585879
0.041800 0.588420
0.042620 0.590856
0.043440 0.593194
0.044259 0.595439
0.045079 0.597598
0.045899 0.599676
0.046718 0.601677
0.047538 0.603607
0.048357 0.605470
0.049177 0.607269
0.049997 0.609009
0.050816 0.610692
0.051636 0.612323
0.052455 0.613904
0.053275 0.615437
0.054095 0.616926
0.054914 0.618373
0.055734 0.619780
0.056553 0.621150
0.057373 0.622483
0.058193 0.623783
0.059012 0.625051
0.059832 0.626289
0.060652 0.627497
0.061471 0.628678
0.062291 0.629833
0.063110 0.630963
0.063930 0.632069
0.064750 0.633153
0.065569 0.634215
0.066389 0.635256
0.067209 0.636278
0.068028 0.637281
0.068848 0.638266
0.069667 0.639233
0.070487 0.640185
0.071307 0.641120
0.072126 0.642040
0.072946 0.642945
0.073765 0.643836
0.074585 0.644713
0.075405 0.645578
0.076224 0.646430
0.077044 0.647269
0.077864 0.648097
0.078683 0.648913
0.079503 0.649718
0.080322 0.650512
0.081142 0.651296
0.081962 0.652070
0.082781 0.652834
0.083601 0.653588
0.084420 0.654333
0.085240 0.655069
0.086060 0.655795
0.086879 0.656513
0.087699 0.657222
0.088518 0.657923
0.089338 0.658616
0.090158 0.659300
0.090977 0.659976
0.091797 0.660645
0.092617 0.661306
0.093436 0.661959
0.094256 0.662604
0.095075 0.663242
0.095895 0.663873
0.096715 0.664496
0.097534 0.665112
0.098354 0.665721
0.099173 0.666322
0.099993 0.666917
0.100813 0.667504
0.101632 0.668084
0.102452 0.668658
0.103272 0.669224
0.104091 0.669783
0.104911 0.670336
0.105730 0.670881
0.106550 0.671420
0.107370 0.671951
0.108189 0.672476
0.109009 0.672994
0.109828 0.673504
0.110648 0.674008
0.111468 0.674505
0.112287 0.674995
0.113107 0.675478
0.113927 0.675954
0.114746 0.676423
0.115566 0.676885
0.116386 0.677340
0.117205 0.677787
0.118025 0.678228
0.118844 0.678662
0.119664 0.679088
0.120483 0.679507
0.121303 0.679919
0.122123 0.680324
0.122942 0.680721
0.123762 0.681111
0.124582 0.681494
0.125401 0.681869
0.126221 0.682237
0.127041 0.682598
0.127860 0.682951
0.128680 0.683296
0.129499 0.683634
0.130319 0.683965
0.131138 0.684287
0.131958 0.684602
0.132778 0.684910
0.133597 0.685210
0.134417 0.685501
0.135237 0.685786
0.136056 0.686062
0.136876 0.686330
0.137695 0.686591
0.138515 0.686843
0.139335 0.687088
0.140154 0.687325
0.140974 0.687554
0.141793 0.687774
0.142613 0.687987
0.143433 0.688191
0.144252 0.688387
0.145072 0.688576
0.145892 0.688756
0.146711 0.688927
0.147531 0.689091
0.148350 0.689246
0.149170 0.689393
0.149990 0.689532
0.150809 0.689663
0.151629 0.689785
0.152449 0.689898
0.153268 0.690004
0.154088 0.690101
0.154907 0.690190
0.155727 0.690270
0.156547 0.690342
0.157366 0.690405
0.158186 0.690460
0.159005 0.690506
0.159825 0.690545
0.160645 0.690574
0.161464 0.690595
0.162284 0.690608
0.163104 0.690612

0.163104 0.690612
0.163577 0.690613
0.164050 0.690615
0.164523 0.690618
0.164996 0.690622
0.165470 0.690628
0.165943 0.690635
0.166416 0.690643
0.166889 0.690652
0.167362 0.690663
0.167836 0.690675
0.168309 0.690688
0.168782 0.690703
0.169255 0.690718
0.169728 0.690735
0.170202 0.690753
0.170675 0.690772
0.171148 0.690793
0.171621 0.690815
0.172095 0.690838
0.172568 0.690862
0.173041 0.690887
0.173514 0.690914
0.173987 0.690941
0.174460 0.690970
0.174934 0.691001
0.175407 0.691032
0.175880 0.691064
0.176353 0.691098
0.176826 0.691133
0.177300 0.691169
0.177773 0.691206
0.178246 0.691244
0.178719 0.691283
0.179193 0.691323
0.179666 0.691365
0.180139 0.691407
0.180612 0.691451
0.181085 0.691496
0.181559 0.691541
0.182032 0.691588
0.182505 0.691636
0.182978 0.691685
0.183451 0.691735
0.183925 0.691786
0.184398 0.691838
0.184871 0.691890
0.185344 0.691944
0.185817 0.691999
0.186291 0.692055
0.186764 0.692112
0.187237 0.692169
0.187710 0.692228
0.188183 0.692287
0.188657 0.692347
0.189130 0.692408
0.189603 0.692470
0.190076 0.692533
0.190549 0.692597
0.191023 0.692661
0.191496 0.692727
0.191969 0.692793
0.192442 0.692860
0.192915 0.692927
0.193389 0.692996
0.193862 0.693065
0.194335 0.693134
0.194808 0.693205
0.195281 0.693276
0.195755 0.693348
0.196228 0.693420
0.196701 0.693493
0.197174 0.693567
0.197648 0.693641
0.198121 0.693716
0.198594 0.693791
0.199067 0.693867
0.199540 0.693943
0.200014 0.694020
0.200487 0.694098
0.200960 0.694176
0.201433 0.694254
0.201906 0.694333
0.202380 0.694412
0.202853 0.694492
0.203326 0.694572
0.203799 0.694652
0.204272 0.694733
0.204746 0.694814
0.205219 0.694895
0.205692 0.694977
0.206165 0.695059
0.206638 0.695141
0.207112 0.695223
0.207585 0.695306
0.208058 0.695389
0.208531 0.695471
0.209004 0.695555
0.209478 0.695638
0.209951 0.695721
0.210424 0.695805
0.210897 0.695888
0.211370 0.695972
0.211844 0.696056
0.212317 0.696139
0.212790 0.696223
0.213263 0.696307
0.213736 0.696390
0.214210 0.696474
0.214683 0.696557
0.215156 0.696641
0.215629 0.696724
0.216103 0.696807
0.216576 0.696890
0.217049 0.696973
0.217522 0.697055
0.217995 0.697138
0.218469 0.697220
0.218942 0.697302
0.219415 0.697384
0.219888 0.697465
0.220361 0.697546
0.220835 0.697627
0.221308 0.697707
0.221781 0.697787
0.222254 0.697866
0.222727 0.697946
0.223201 0.698024
0.223674 0.698103
0.224147 0.698180
0.224620 0.698258
0.225093 0.698334
0.225567 0.698411
0.226040 0.698486
0.226513 0.698562
0.226986 0.698636
0.227459 0.698710
0.227933 0.698783
0.228406 0.698856
0.228879 0.698928
0.229352 0.698999
0.229825 0.699070
0.230299 0.699140
0.230772 0.699209
0.231245 0.699277
0.231718 0.699345
0.232191 0.699412
0.232665 0.699478
0.233138 0.699543
0.233611 0.699607
0.234084 0.699671
0.234558 0.699733
0.235031 0.699795
0.235504 0.699856
0.235977 0.699915
0.236450 0.699974
0.236924 0.700032
0.237397 0.700089
0.237870 0.700145
0.238343 0.700200
0.238816 0.700253
0.239290 0.700306
0.239763 0.700358
0.240236 0.700408
0.240709 0.700458
0.241182 0.700506
0.241656 0.700553
0.242129 0.700599
0.242602 0.700644
0.243075 0.700687
0.243548 0.700730
0.244022 0.700771
0.244495 0.700811
0.244968 0.700849
0.245441 0.700887
0.245914 0.700923
0.246388 0.700957
0.246861 0.700991
0.247334 0.701023
0.247807 0.701054
0.248280 0.701083
0.248754 0.701111
0.249227 0.701137
0.249700 0.701163
0.250173 0.701186
0.250646 0.701209
0.251120 0.701230
0.251593 0.701249
0.252066 0.701267
0.252539 0.701283
0.253012 0.701298
0.253486 0.701312
0.253959 0.701324
0.254432 0.701334
0.254905 0.701343
0.255379 0.701350
0.255852 0.701356
0.256325 0.701360
0.256798 0.701362
0.257271 0.701363

0.257271 0.701363
0.258218 0.701360
0.259164 0.701350
0.260111 0.701333
0.261057 0.701310
0.262003 0.701280
0.262950 0.701242
0.263896 0.701198
0.264843 0.701147
0.265789 0.701088
0.266735 0.701023
0.267682 0.700950
0.268628 0.700869
0.269575 0.700782
0.270521 0.700686
0.271467 0.700583
0.272414 0.700473
0.273360 0.700355
0.274307 0.700229
0.275253 0.700095
0.276199 0.699954
0.277146 0.699805
0.278092 0.699648
0.279039 0.699483
0.279985 0.699310
0.280932 0.699129
0.281878 0.698940
0.282824 0.698743
0.283771 0.698538
0.284717 0.698324
0.285664 0.698103
0.286610 0.697874
0.287556 0.697636
0.288503 0.697391
0.289449 0.697137
0.290396 0.696875
0.291342 0.696605
0.292289 0.696326
0.293235 0.696040
0.294181 0.695745
0.295128 0.695442
0.296074 0.695131
0.297021 0.694812
0.297967 0.694485
0.298913 0.694149
0.299860 0.693806
0.300806 0.693454
0.301753 0.693094
0.302699 0.692726
0.303645 0.692350
0.304592 0.691966
0.305538 0.691573
0.306485 0.691173
0.307431 0.690765
0.308378 0.690348
0.309324 0.689924
0.310270 0.689492
0.311217 0.689052
0.312163 0.688604
0.313109 0.688148
0.314056 0.687684
0.315002 0.687212
0.315949 0.686733
0.316895 0.686246
0.317842 0.685751
0.318788 0.685248
0.319734 0.684738
0.320681 0.684220
0.321627 0.683694
0.322574 0.683161
0.323520 0.682620
0.324466 0.682071
0.325413 0.681515
0.326359 0.680951
0.327306 0.680380
0.328252 0.679801
0.329199 0.679214
0.330145 0.678621
0.331091 0.678019
0.332038 0.677410
0.332984 0.676794
0.333931 0.676170
0.334877 0.675538
0.335823 0.674899
0.336770 0.674253
0.337716 0.673599
0.338663 0.672937
0.339609 0.672268
0.340555 0.671591
0.341502 0.670906
0.342448 0.670213
0.343395 0.669513
0.344341 0.668805
0.345288 0.668089
0.346234 0.667364
0.347180 0.666632
0.348127 0.665892
0.349073 0.665143
0.350019 0.664385
0.350966 0.663620
0.351912 0.662845
0.352859 0.662061
0.353805 0.661269
