# distance  frequency (bands are separated by blank lines)
# End points of segments: 
#   0.00000000 0.12496480 0.23779840 0.36276330 0.47559690 
0.000000 -0.103102
0.000628 -0.120877
0.001256 -0.143964
0.001884 -0.164050
0.002512 -0.181535
0.003140 -0.196983
0.003768 -0.210797
0.004396 -0.223257
0.005024 -0.234565
0.005652 -0.244871
0.006280 -0.254289
0.006908 -0.262909
0.007536 -0.270804
0.008164 -0.278034
0.008792 -0.284651
0.009420 -0.290699
0.010047 -0.296220
0.010675 -0.301252
0.011303 -0.305833
0.011931 -0.309999
0.012559 -0.313788
0.013187 -0.317237
0.013815 -0.320385
0.014443 -0.323271
0.015071 -0.325932
0.015699 -0.328407
0.016327 -0.330728
0.016955 -0.332925
0.017583 -0.335023
0.018211 -0.337040
0.018839 -0.338986
0.019467 -0.340864
0.020095 -0.342672
0.020723 -0.344401
0.021351 -0.346035
0.021979 -0.347557
0.022607 -0.348947
0.023235 -0.350181
0.023863 -0.351235
0.024491 -0.352085
0.025119 -0.352705
0.025746 -0.353072
0.026374 -0.353160
0.027002 -0.352946
0.027630 -0.352405
0.028258 -0.351514
0.028886 -0.350248
0.029514 -0.348585
0.030142 -0.346499
0.030770 -0.343966
0.031398 -0.340958
0.032026 -0.337448
0.032654 -0.333407
0.033282 -0.328801
0.033910 -0.323595
0.034538 -0.317747
0.035166 -0.311213
0.035794 -0.303938
0.036422 -0.295860
0.037050 -0.286905
0.037678 -0.276980
0.038306 -0.265973
0.038934 -0.253737
0.039562 -0.240083
0.040190 -0.224749
0.040818 -0.207360
0.041446 -0.187346
0.042074 -0.163747
0.042702 -0.134695
0.043329 -0.095334
0.043957 0.018656
0.044585 0.100822
0.045213 0.142690
0.045841 0.175874
0.046469 0.204637
0.047097 0.230631
0.047725 0.254699
0.048353 0.277337
0.048981 0.298864
0.049609 0.319497
0.050237 0.339394
0.050865 0.358671
0.051493 0.377417
0.052121 0.395701
0.052749 0.413579
0.053377 0.431095
0.054005 0.448286
0.054633 0.465181
0.055261 0.481808
0.055889 0.498186
0.056517 0.514333
0.057145 0.530266
0.057773 0.545998
0.058401 0.561539
0.059029 0.576901
0.059657 0.592092
0.060284 0.607118
0.060913 0.621988
0.061540 0.636707
0.062168 0.651280
0.062796 0.665712
0.063424 0.680006
0.064052 0.694166
0.064680 0.708196
0.065308 0.722099
0.065936 0.735875
0.066564 0.749529
0.067192 0.763062
0.067820 0.776475
0.068448 0.789771
0.069076 0.802950
0.069704 0.816013
0.070332 0.828963
0.070960 0.841799
0.071588 0.854522
0.072216 0.867134
0.072844 0.879634
0.073472 0.892024
0.074100 0.904303
0.074728 0.916472
0.075356 0.928532
0.075984 0.940482
0.076612 0.952322
0.077240 0.964054
0.077868 0.975677
0.078495 0.987190
0.079123 0.998594
0.079751 1.009890
0.080379 1.021076
0.081007 1.032152
0.081635 1.043120
0.082263 1.053977
0.082891 1.064725
0.083519 1.075363
0.084147 1.085891
0.084775 1.096309
0.085403 1.106615
0.086031 1.116811
0.086659 1.126895
0.087287 1.136868
0.087915 1.146728
0.088543 1.156477
0.089171 1.166112
0.089799 1.175634
0.090427 1.185043
0.091055 1.194338
0.091683 1.203518
0.092311 1.212583
0.092939 1.221532
0.093567 1.230366
0.094195 1.239082
0.094823 1.247681
0.095450 1.256163
0.096078 1.264525
0.096706 1.272768
0.097334 1.280890
0.097962 1.288892
0.098590 1.296771
0.099218 1.304527
0.099846 1.312159
0.100474 1.319665
0.101102 1.327045
0.101730 1.334297
0.102358 1.341420
0.102986 1.348412
0.103614 1.355272
0.104242 1.361997
0.104870 1.368586
0.105498 1.375037
0.106126 1.381347
0.106754 1.387515
0.107382 1.393537
0.108010 1.399411
0.108638 1.405134
0.109266 1.410702
0.109894 1.416112
0.110522 1.421361
0.111150 1.426445
0.111778 1.431359
0.112406 1.436099
0.113033 1.440660
0.113661 1.445038
0.114289 1.449226
0.114917 1.453221
0.115545 1.457015
0.116173 1.460604
0.116801 1.463981
0.117429 1.467141
0.118057 1.470076
0.118685 1.472782
0.119313 1.475252
0.119941 1.477480
0.120569 1.479461
0.121197 1.481189
0.121825 1.482660
0.122453 1.483870
0.123081 1.484815
0.123709 1.485492
0.124337 1.485899
0.124965 1.486035

0.124965 1.486035
0.125532 1.486040
0.126099 1.486057
0.126666 1.486085
0.127233 1.486124
0.127800 1.486174
0.128367 1.486235
0.128934 1.486307
0.129501 1.486390
0.130068 1.486484
0.130635 1.486588
0.131202 1.486703
0.131769 1.486828
0.132336 1.486963
0.132903 1.487109
0.133470 1.487264
0.134037 1.487430
0.134604 1.487604
0.135171 1.487788
0.135738 1.487981
0.136305 1.488183
0.136872 1.488393
0.137439 1.488612
0.138006 1.488838
0.138573 1.489073
0.139140 1.489315
0.139707 1.489563
0.140274 1.489819
0.140841 1.490081
0.141408 1.490349
0.141975 1.490623
0.142542 1.490902
0.143109 1.491186
0.143676 1.491475
0.144243 1.491768
0.144810 1.492064
0.145377 1.492364
0.145944 1.492666
0.146511 1.492971
0.147078 1.493278
0.147645 1.493586
0.148212 1.493895
0.148779 1.494204
0.149346 1.494513
0.149913 1.494821
0.150480 1.495128
0.151047 1.495434
0.151614 1.495737
0.152181 1.496037
0.152748 1.496333
0.153315 1.496626
0.153882 1.496914
0.154449 1.497196
0.155016 1.497473
0.155583 1.497743
0.156150 1.498006
0.156717 1.498261
0.157284 1.498507
0.157851 1.498745
0.158418 1.498972
0.158985 1.499189
0.159552 1.499395
0.160119 1.499589
0.160686 1.499770
0.161253 1.499938
0.161820 1.500092
0.162387 1.500231
0.162954 1.500354
0.163521 1.500461
0.164088 1.500551
0.164655 1.500623
0.165222 1.500676
0.165789 1.500710
0.166356 1.500723
0.166923 1.500715
0.167490 1.500685
0.168057 1.500632
0.168624 1.500555
0.169191 1.500454
0.169758 1.500327
0.170325 1.500173
0.170892 1.499992
0.171459 1.499783
0.172026 1.499543
0.172593 1.499274
0.173160 1.498973
0.173727 1.498639
0.174294 1.498271
0.174861 1.497868
0.175428 1.497430
0.175995 1.496954
0.176562 1.496439
0.177129 1.495885
0.177696 1.495289
0.178263 1.494652
0.178830 1.493970
0.179397 1.493242
0.179964 1.492468
0.180531 1.491645
0.181098 1.490773
0.181665 1.489848
0.182232 1.488870
0.182799 1.487836
0.183366 1.486745
0.183933 1.485594
0.184500 1.484382
0.185067 1.483107
0.185634 1.481765
0.186201 1.480356
0.186768 1.478875
0.187335 1.477322
0.187902 1.475693
0.188469 1.473985
0.189036 1.472195
0.189603 1.470321
0.190170 1.468360
0.190737 1.466307
0.191304 1.464161
0.191871 1.461917
0.192438 1.459572
0.193005 1.457123
0.193572 1.454566
0.194139 1.451896
0.194706 1.449111
0.195273 1.446207
0.195840 1.443179
0.196407 1.440025
0.196974 1.436740
0.197541 1.433322
0.198108 1.429766
0.198675 1.426071
0.199242 1.422232
0.199809 1.418248
0.200376 1.414116
0.200943 1.409836
0.201510 1.405405
0.202077 1.400824
0.202644 1.396091
0.203211 1.391209
0.203778 1.386178
0.204345 1.381000
0.204912 1.375679
0.205479 1.370216
0.206046 1.364618
0.206613 1.358888
0.207180 1.353033
0.207747 1.347058
0.208314 1.340970
0.208881 1.334777
0.209448 1.328487
0.210015 1.322107
0.210582 1.315648
0.211149 1.309117
0.211716 1.302524
0.212283 1.295879
0.212850 1.289192
0.213417 1.282473
0.213984 1.275731
0.214551 1.268978
0.215118 1.262222
0.215685 1.255475
0.216252 1.248746
0.216819 1.242045
0.217386 1.235383
0.217953 1.228769
0.218520 1.222214
0.219087 1.215726
0.219654 1.209315
0.220221 1.202992
0.220788 1.196764
0.221355 1.190641
0.221922 1.184632
0.222489 1.178747
0.223056 1.172992
0.223623 1.167377
0.224190 1.161910
0.224757 1.156600
0.225324 1.151452
0.225891 1.146476
0.226458 1.141679
0.227025 1.137067
0.227592 1.132648
0.228159 1.128428
0.228726 1.124414
0.229293 1.120611
0.229860 1.117025
0.230427 1.113662
0.230994 1.110526
0.231561 1.107623
0.232128 1.104958
0.232695 1.102533
0.233262 1.100353
0.233829 1.098422
0.234396 1.096742
0.234963 1.095316
0.235530 1.094146
0.236097 1.093234
0.236664 1.092582
0.237231 1.092190
0.237798 1.092059

0.237798 1.092059
0.238426 1.092232
0.239054 1.092749
0.239682 1.093609
0.240310 1.094808
0.240938 1.096342
0.241566 1.098206
0.242194 1.100393
0.242822 1.102895
0.243450 1.105704
0.244078 1.108809
0.244706 1.112200
0.245334 1.115865
0.245962 1.119792
0.246590 1.123968
0.247218 1.128377
0.247846 1.133007
0.248474 1.137842
0.249102 1.142866
0.249730 1.148064
0.250358 1.153419
0.250986 1.158914
0.251614 1.164534
0.252242 1.170262
0.252870 1.176080
0.253497 1.181973
0.254126 1.187923
0.254754 1.193915
0.255381 1.199932
0.256009 1.205959
0.256637 1.211979
0.257265 1.217978
0.257893 1.223941
0.258521 1.229854
0.259149 1.235701
0.259777 1.241471
0.260405 1.247149
0.261033 1.252724
0.261661 1.258183
0.262289 1.263513
0.262917 1.268704
0.263545 1.273746
0.264173 1.278626
0.264801 1.283335
0.265429 1.287863
0.266057 1.292200
0.266685 1.296336
0.267313 1.300264
0.267941 1.303972
0.268569 1.307454
0.269197 1.310700
0.269825 1.313701
0.270453 1.316451
0.271081 1.318940
0.271709 1.321162
0.272336 1.323108
0.272964 1.324774
0.273592 1.326152
0.274220 1.327237
0.274848 1.328025
0.275476 1.328511
0.276104 1.328692
0.276732 1.328568
0.277360 1.328138
0.277988 1.327401
0.278616 1.326361
0.279244 1.325021
0.279872 1.323386
0.280500 1.321461
0.281128 1.319254
0.281756 1.316773
0.282384 1.314028
0.283012 1.311029
0.283640 1.307787
0.284268 1.304313
0.284896 1.300619
0.285524 1.296719
0.286152 1.292623
0.286780 1.288346
0.287408 1.283899
0.288035 1.279295
0.288664 1.274546
0.289291 1.269665
0.289919 1.264663
0.290547 1.259551
0.291175 1.254342
0.291803 1.249045
0.292431 1.243672
0.293059 1.238232
0.293687 1.232735
0.294315 1.227190
0.294943 1.221607
0.295571 1.215994
0.296199 1.210359
0.296827 1.204710
0.297455 1.199056
0.298083 1.193402
0.298711 1.187756
0.299339 1.182124
0.299967 1.176512
0.300595 1.170928
0.301223 1.165375
0.301851 1.159859
0.302479 1.154386
0.303107 1.148960
0.303735 1.143585
0.304363 1.138265
0.304991 1.133004
0.305619 1.127807
0.306246 1.122675
0.306874 1.117612
0.307502 1.112621
0.308130 1.107705
0.308758 1.102865
0.309386 1.098103
0.310014 1.093422
0.310642 1.088822
0.311270 1.084306
0.311898 1.079873
0.312526 1.075526
0.313154 1.071264
0.313782 1.067089
0.314410 1.063000
0.315038 1.058997
0.315666 1.055081
0.316294 1.051250
0.316922 1.047506
0.317550 1.043846
0.318178 1.040271
0.318806 1.036779
0.319434 1.033369
0.320062 1.030041
0.320690 1.026793
0.321318 1.023623
0.321946 1.020531
0.322574 1.017515
0.323201 1.014572
0.323829 1.011702
0.324458 1.008903
0.325085 1.006173
0.325713 1.003511
0.326341 1.000914
0.326969 0.998380
0.327597 0.995909
0.328225 0.993497
0.328853 0.991144
0.329481 0.988848
0.330109 0.986606
0.330737 0.984418
0.331365 0.982281
0.331993 0.980194
0.332621 0.978156
0.333249 0.976165
0.333877 0.974219
0.334505 0.972318
0.335133 0.970460
0.335761 0.968644
0.336389 0.966869
0.337017 0.965134
0.337645 0.963438
0.338273 0.961781
0.338901 0.960162
0.339529 0.958581
0.340157 0.957036
0.340784 0.955528
0.341413 0.954056
0.342040 0.952621
0.342668 0.951221
0.343296 0.949858
0.343924 0.948531
0.344552 0.947241
0.345180 0.945987
0.345808 0.944770
0.346436 0.943591
0.347064 0.942449
0.347692 0.941346
0.348320 0.940281
0.348948 0.939255
0.349576 0.938269
0.350204 0.937324
0.350832 0.936419
0.351460 0.935556
0.352088 0.934736
0.352716 0.933958
0.353344 0.933223
0.353972 0.932533
0.354600 0.931888
0.355228 0.931288
0.355856 0.930733
0.356484 0.930225
0.357112 0.929764
0.357739 0.929350
0.358368 0.928983
0.358996 0.928665
0.359623 0.928395
0.360251 0.928174
0.360879 0.928002
0.361507 0.927879
0.362135 0.927805
0.362763 0.927780

0.362763 0.927780
0.363330 0.927618
0.363897 0.927133
0.364464 0.926329
0.365031 0.925212
0.365598 0.923790
0.366165 0.922074
0.366732 0.920075
0.367299 0.917807
0.367866 0.915284
0.368433 0.912519
0.369000 0.909529
0.369567 0.906329
0.370134 0.902933
0.370701 0.899356
0.371268 0.895612
0.371835 0.891716
0.372402 0.887679
0.372969 0.883515
0.373536 0.879234
0.374103 0.874848
0.374670 0.870367
0.375237 0.865801
0.375804 0.861157
0.376371 0.856445
0.376938 0.851671
0.377505 0.846843
0.378072 0.841967
0.378639 0.837049
0.379206 0.832094
0.379773 0.827107
0.380340 0.822093
0.380907 0.817056
0.381474 0.812000
0.382041 0.806927
0.382608 0.801842
0.383175 0.796747
0.383742 0.791644
0.384309 0.786536
0.384876 0.781426
0.385443 0.776314
0.386010 0.771203
0.386577 0.766095
0.387144 0.760989
0.387711 0.755889
0.388278 0.750794
0.388845 0.745705
0.389412 0.740624
0.389979 0.735551
0.390546 0.730487
0.391113 0.725431
0.391680 0.720384
0.392247 0.715346
0.392814 0.710318
0.393381 0.705299
0.393948 0.700290
0.394515 0.695289
0.395082 0.690297
0.395649 0.685314
0.396216 0.680339
0.396783 0.675372
0.397350 0.670411
0.397917 0.665457
0.398484 0.660510
0.399052 0.655567
0.399618 0.650629
0.400186 0.645694
0.400753 0.640763
0.401319 0.635833
0.401886 0.630904
0.402454 0.625976
0.403021 0.621046
0.403587 0.616114
0.404155 0.611179
0.404722 0.606240
0.405288 0.601295
0.405855 0.596344
0.406423 0.591385
0.406990 0.586416
0.407556 0.581436
0.408123 0.576445
0.408691 0.571440
0.409257 0.566421
0.409824 0.561385
0.410392 0.556332
0.410959 0.551259
0.411525 0.546165
0.412092 0.541049
0.412660 0.535909
0.413226 0.530743
0.413793 0.525549
0.414361 0.520326
0.414928 0.515073
0.415494 0.509786
0.416061 0.504464
0.416629 0.499106
0.417196 0.493709
0.417763 0.488271
0.418330 0.482791
0.418897 0.477266
0.419464 0.471693
0.420031 0.466072
0.420598 0.460398
0.421165 0.454671
0.421732 0.448887
0.422299 0.443044
0.422866 0.437139
0.423433 0.431169
0.424000 0.425132
0.424567 0.419025
0.425134 0.412844
0.425701 0.406586
0.426268 0.400248
0.426835 0.393825
0.427402 0.387316
0.427969 0.380714
0.428536 0.374016
0.429103 0.367217
0.429670 0.360312
0.430237 0.353296
0.430804 0.346163
0.431371 0.338907
0.431938 0.331522
0.432505 0.323998
0.433072 0.316330
0.433639 0.308507
0.434206 0.300519
0.434773 0.292355
0.435340 0.284003
0.435907 0.275447
0.436474 0.266672
0.437041 0.257657
0.437608 0.248380
0.438175 0.238815
0.438742 0.228930
0.439309 0.218686
0.439876 0.208034
0.440443 0.196915
0.441010 0.185250
0.441577 0.172936
0.442144 0.159830
0.442711 0.145729
0.443278 0.130320
0.443845 0.113082
0.444412 0.093018
0.444979 0.067683
0.445546 0.024007
0.446113 -0.057951
0.446680 -0.084969
0.447247 -0.104902
0.447814 -0.121281
0.448381 -0.135388
0.448948 -0.147863
0.449515 -0.159079
0.450082 -0.169273
0.450649 -0.178612
0.451216 -0.187211
0.451783 -0.195158
0.452350 -0.202520
0.452917 -0.209348
0.453484 -0.215682
0.454051 -0.221556
0.454618 -0.226996
0.455185 -0.232021
0.455752 -0.236648
0.456319 -0.240892
0.456886 -0.244762
0.457453 -0.248266
0.458020 -0.251410
0.458587 -0.254197
0.459154 -0.256631
0.459721 -0.258710
0.460288 -0.260435
0.460855 -0.261803
0.461422 -0.262810
0.461989 -0.263450
0.462556 -0.263717
0.463123 -0.263602
0.463690 -0.263095
0.464257 -0.262184
0.464824 -0.260856
0.465391 -0.259094
0.465958 -0.256880
0.466525 -0.254192
0.467092 -0.251006
0.467659 -0.247290
0.468226 -0.243013
0.468793 -0.238133
0.469360 -0.232603
0.469927 -0.226364
0.470494 -0.219347
0.471061 -0.211465
0.471628 -0.202608
0.472195 -0.192636
0.472762 -0.181364
0.473329 -0.168540
0.473896 -0.153825
0.474463 -0.136787
0.475030 -0.117347
0.475597 -0.103102


0.000000 -0.085112
0.000628 0.034811
0.001256 0.089379
0.001884 0.123666
0.002512 0.151354
0.003140 0.175458
0.003768 0.197261
0.004396 0.217450
0.005024 0.236440
0.005652 0.254509
0.006280 0.271850
0.006908 0.288608
0.007536 0.304891
0.008164 0.320788
0.008792 0.336369
0.009420 0.351691
0.010047 0.366804
0.010675 0.381750
0.011303 0.396565
0.011931 0.411282
0.012559 0.425929
0.013187 0.440530
0.013815 0.455109
0.014443 0.469686
0.015071 0.484280
0.015699 0.498907
0.016327 0.513582
0.016955 0.528321
0.017583 0.543134
0.018211 0.558035
0.018839 0.573033
0.019467 0.588137
0.020095 0.603357
0.020723 0.618701
0.021351 0.634174
0.021979 0.649783
0.022607 0.665534
0.023235 0.681431
0.023863 0.697478
0.024491 0.713678
0.025119 0.730034
0.025746 0.746549
0.026374 0.763223
0.027002 0.780057
0.027630 0.797052
0.028258 0.814208
0.028886 0.831523
0.029514 0.848997
0.030142 0.866627
0.030770 0.884412
0.031398 0.902347
0.032026 0.920431
0.032654 0.938660
0.033282 0.957028
0.033910 0.975531
0.034538 0.994163
0.035166 1.012919
0.035794 1.031793
0.036422 1.050777
0.037050 1.069864
0.037678 1.089046
0.038306 1.108315
0.038934 1.127662
0.039562 1.147076
0.040190 1.166549
0.040818 1.186070
0.041446 1.205627
0.042074 1.225209
0.042702 1.244804
0.043329 1.264399
0.043957 1.283980
0.044585 1.303535
0.045213 1.323048
0.045841 1.342505
0.046469 1.361890
0.047097 1.381188
0.047725 1.400383
0.048353 1.419457
0.048981 1.438395
0.049609 1.457179
0.050237 1.475790
0.050865 1.494213
0.051493 1.512430
0.052121 1.530422
0.052749 1.548175
0.053377 1.565670
0.054005 1.582893
0.054633 1.599829
0.055261 1.616464
0.055889 1.632786
0.056517 1.648786
0.057145 1.664456
0.057773 1.679789
0.058401 1.694783
0.059029 1.709438
0.059657 1.723757
0.060284 1.737747
0.060913 1.751418
0.061540 1.764785
0.062168 1.777863
0.062796 1.790677
0.063424 1.803249
0.064052 1.815610
0.064680 1.827790
0.065308 1.839825
0.065936 1.851750
0.066564 1.863604
0.067192 1.875426
0.067820 1.887255
0.068448 1.899128
0.069076 1.911081
0.069704 1.923147
0.070332 1.935355
0.070960 1.947729
0.071588 1.960287
0.072216 1.973042
0.072844 1.986003
0.073472 1.999172
0.074100 2.012546
0.074728 2.026118
0.075356 2.039878
0.075984 2.053814
0.076612 2.067909
0.077240 2.082147
0.077868 2.096512
0.078495 2.110985
0.079123 2.125550
0.079751 2.140189
0.080379 2.154885
0.081007 2.169624
0.081635 2.184390
0.082263 2.199170
0.082891 2.213950
0.083519 2.228719
0.084147 2.243465
0.084775 2.258177
0.085403 2.272846
0.086031 2.287462
0.086659 2.302016
0.087287 2.316502
0.087915 2.330911
0.088543 2.345235
0.089171 2.359469
0.089799 2.373606
0.090427 2.387639
0.091055 2.401562
0.091683 2.415370
0.092311 2.429057
0.092939 2.442618
0.093567 2.456046
0.094195 2.469337
0.094823 2.482484
0.095450 2.495482
0.096078 2.508325
0.096706 2.521008
0.097334 2.533524
0.097962 2.545866
0.098590 2.558028
0.099218 2.570003
0.099846 2.581783
0.100474 2.593361
0.101102 2.604728
0.101730 2.615875
0.102358 2.626793
0.102986 2.637473
0.103614 2.647903
0.104242 2.658072
0.104870 2.667970
0.105498 2.677585
0.106126 2.686905
0.106754 2.695917
0.107382 2.704609
0.108010 2.712969
0.108638 2.720987
0.109266 2.728652
0.109894 2.735955
0.110522 2.742888
0.111150 2.749447
0.111778 2.755626
0.112406 2.761426
0.113033 2.766849
0.113661 2.771897
0.114289 2.776578
0.114917 2.780899
0.115545 2.784872
0.116173 2.788507
0.116801 2.791818
0.117429 2.794817
0.118057 2.797518
0.118685 2.799935
0.119313 2.802080
0.119941 2.803965
0.120569 2.805601
0.121197 2.806999
0.121825 2.808166
0.122453 2.809111
0.123081 2.809839
0.123709 2.810356
0.124337 2.810665
0.124965 2.810768

0.124965 1.739067
0.125532 1.739059
0.126099 1.739035
0.126666 1.738995
0.127233 1.738939
0.127800 1.738868
0.128367 1.738780
0.128934 1.738677
0.129501 1.738557
0.130068 1.738422
0.130635 1.738270
0.131202 1.738103
0.131769 1.737920
0.132336 1.737721
0.132903 1.737506
0.133470 1.737275
0.134037 1.737028
0.134604 1.736765
0.135171 1.736487
0.135738 1.736193
0.136305 1.735882
0.136872 1.735556
0.137439 1.735215
0.138006 1.734857
0.138573 1.734484
0.139140 1.734095
0.139707 1.733690
0.140274 1.733270
0.140841 1.732835
0.141408 1.732383
0.141975 1.731917
0.142542 1.731435
0.143109 1.730938
0.143676 1.730425
0.144243 1.729898
0.144810 1.729356
0.145377 1.728798
0.145944 1.728226
0.146511 1.727639
0.147078 1.727038
0.147645 1.726422
0.148212 1.725792
0.148779 1.725148
0.149346 1.724490
0.149913 1.723818
0.150480 1.723133
0.151047 1.722434
0.151614 1.721721
0.152181 1.720996
0.152748 1.720258
0.153315 1.719507
0.153882 1.718743
0.154449 1.717968
0.155016 1.717180
0.155583 1.716381
0.156150 1.715569
0.156717 1.714747
0.157284 1.713914
0.157851 1.713069
0.158418 1.712214
0.158985 1.711349
0.159552 1.710474
0.160119 1.709589
0.160686 1.708694
0.161253 1.707790
0.161820 1.706877
0.162387 1.705955
0.162954 1.705025
0.163521 1.704086
0.164088 1.703140
0.164655 1.702185
0.165222 1.701223
0.165789 1.700254
0.166356 1.699277
0.166923 1.698294
0.167490 1.697304
0.168057 1.696307
0.168624 1.695304
0.169191 1.694294
0.169758 1.693279
0.170325 1.692257
0.170892 1.691230
0.171459 1.690196
0.172026 1.689157
0.172593 1.688112
0.173160 1.687061
0.173727 1.686004
0.174294 1.684940
0.174861 1.683871
0.175428 1.682795
0.175995 1.681713
0.176562 1.680624
0.177129 1.679527
0.177696 1.678423
0.178263 1.677311
