# distance  frequency (bands are separated by blank lines)
# End points of segments: 
#   0.00000000 0.11201440 0.23702650 0.34904090 0.47405300 
0.000000 -0.137675
0.000563 -0.137819
0.001126 -0.138244
0.001689 -0.138929
0.002252 -0.139849
0.002814 -0.140976
0.003377 -0.142284
0.003940 -0.143755
0.004503 -0.145374
0.005066 -0.147129
0.005629 -0.149013
0.006192 -0.151020
0.006755 -0.153144
0.007318 -0.155380
0.007880 -0.157725
0.008443 -0.160173
0.009006 -0.162720
0.009569 -0.165361
0.010132 -0.168091
0.010695 -0.170906
0.011258 -0.173800
0.011821 -0.176769
0.012384 -0.179807
0.012946 -0.182909
0.013509 -0.186070
0.014072 -0.189286
0.014635 -0.192551
0.015198 -0.195860
0.015761 -0.199209
0.016324 -0.202592
0.016887 -0.206007
0.017449 -0.209447
0.018012 -0.212909
0.018575 -0.216389
0.019138 -0.219882
0.019701 -0.223385
0.020264 -0.226893
0.020827 -0.230403
0.021390 -0.233911
0.021953 -0.237413
0.022516 -0.240906
0.023078 -0.244386
0.023641 -0.247850
0.024204 -0.251295
0.024767 -0.254717
0.025330 -0.258113
0.025893 -0.261480
0.026456 -0.264815
0.027019 -0.268115
0.027581 -0.271378
0.028144 -0.274599
0.028707 -0.277777
0.029270 -0.280908
0.029833 -0.283990
0.030396 -0.287021
0.030959 -0.289996
0.031522 -0.292915
0.032085 -0.295774
0.032647 -0.298571
0.033210 -0.301304
0.033773 -0.303969
0.034336 -0.306565
0.034899 -0.309089
0.035462 -0.311540
0.036025 -0.313914
0.036588 -0.316209
0.037151 -0.318423
0.037713 -0.320555
0.038276 -0.322601
0.038839 -0.324560
0.039402 -0.326429
0.039965 -0.328208
0.040528 -0.329892
0.041091 -0.331481
0.041654 -0.332972
0.042216 -0.334364
0.042779 -0.335654
0.043342 -0.336841
0.043905 -0.337922
0.044468 -0.338896
0.045031 -0.339761
0.045594 -0.340514
0.046157 -0.341154
0.046720 -0.341680
0.047282 -0.342088
0.047845 -0.342377
0.048408 -0.342546
0.048971 -0.342592
0.049534 -0.342513
0.050097 -0.342308
0.050660 -0.341974
0.051223 -0.341510
0.051785 -0.340913
0.052348 -0.340181
0.052911 -0.339313
0.053474 -0.338305
0.054037 -0.337157
0.054600 -0.335865
0.055163 -0.334428
0.055726 -0.332842
0.056289 -0.331106
0.056851 -0.329216
0.057414 -0.327171
0.057977 -0.324966
0.058540 -0.322600
0.059103 -0.320068
0.059666 -0.317368
0.060229 -0.314495
0.060792 -0.311447
0.061355 -0.308218
0.061918 -0.304805
0.062480 -0.301202
0.063043 -0.297404
0.063606 -0.293405
0.064169 -0.289200
0.064732 -0.284781
0.065295 -0.280141
0.065858 -0.275271
0.066421 -0.270161
0.066984 -0.264802
0.067546 -0.259180
0.068109 -0.253282
0.068672 -0.247092
0.069235 -0.240592
0.069798 -0.233761
0.070361 -0.226573
0.070924 -0.218999
0.071487 -0.211003
0.072049 -0.202541
0.072612 -0.193559
0.073175 -0.183987
0.073738 -0.173736
0.074301 -0.162687
0.074864 -0.150672
0.075427 -0.137450
0.075990 -0.122644
0.076552 -0.105602
0.077115 -0.085010
0.077678 -0.057177
0.078241 0.026783
0.078804 0.068773
0.079367 0.093619
0.079930 0.113219
0.080493 0.129956
0.081056 0.144813
0.081618 0.158309
0.082181 0.170758
0.082744 0.182365
0.083307 0.193272
0.083870 0.203582
0.084433 0.213375
0.084996 0.222711
0.085559 0.231636
0.086122 0.240190
0.086684 0.248404
0.087247 0.256303
0.087810 0.263909
0.088373 0.271241
0.088936 0.278313
0.089499 0.285139
0.090062 0.291730
0.090625 0.298096
0.091188 0.304246
0.091750 0.310187
0.092313 0.315926
0.092876 0.321468
0.093439 0.326819
0.094002 0.331983
0.094565 0.336964
0.095128 0.341766
0.095691 0.346391
0.096254 0.350843
0.096816 0.355124
0.097379 0.359237
0.097942 0.363183
0.098505 0.366965
0.099068 0.370583
0.099631 0.374039
0.100194 0.377336
0.100757 0.380473
0.101320 0.383451
0.101882 0.386273
0.102445 0.388938
0.103008 0.391448
0.103571 0.393803
0.104134 0.396003
0.104697 0.398050
0.105260 0.399943
0.105823 0.401683
0.106385 0.403271
0.106948 0.404707
0.107511 0.405991
0.108074 0.407123
0.108637 0.408104
0.109200 0.408934
0.109763 0.409613
0.110326 0.410140
0.110889 0.410517
0.111451 0.410743
0.112014 0.410819

0.112014 0.410819
0.112643 0.410721
0.113271 0.410429
0.113899 0.409941
0.114527 0.409259
0.115155 0.408383
0.115784 0.407312
0.116412 0.406049
0.117040 0.404592
0.117668 0.402943
0.118296 0.401103
0.118925 0.399072
0.119553 0.396852
0.120181 0.394443
0.120809 0.391847
0.121437 0.389065
0.122066 0.386098
0.122694 0.382949
0.123322 0.379619
0.123950 0.376109
0.124578 0.372422
0.125207 0.368560
0.125835 0.364525
0.126463 0.360321
0.127091 0.355949
0.127719 0.351414
0.128348 0.346718
0.128976 0.341864
0.129604 0.336858
0.130232 0.331703
0.130860 0.326404
0.131489 0.320966
0.132117 0.315395
0.132745 0.309696
0.133373 0.303877
0.134001 0.297945
0.134630 0.291908
0.135258 0.285776
0.135886 0.279557
0.136514 0.273264
0.137142 0.266909
0.137771 0.260505
0.138399 0.254068
0.139027 0.247614
0.139655 0.241164
0.140283 0.234738
0.140912 0.228360
0.141540 0.222058
0.142168 0.215862
0.142796 0.209805
0.143424 0.203925
0.144053 0.198263
0.144681 0.192867
0.145309 0.187785
0.145937 0.183073
0.146565 0.178788
0.147194 0.174991
0.147822 0.171745
0.148450 0.169110
0.149078 0.167147
0.149706 0.165908
0.150335 0.165441
0.150963 0.165780
0.151591 0.166951
0.152219 0.168964
0.152847 0.171816
0.153476 0.175493
0.154104 0.179969
0.154732 0.185210
0.155360 0.191175
0.155989 0.197820
0.156617 0.205098
0.157245 0.212962
0.157873 0.221367
0.158501 0.230270
0.159130 0.239628
0.159758 0.249405
0.160386 0.259563
0.161014 0.270072
0.161642 0.280900
0.162271 0.292021
0.162899 0.303410
0.163527 0.315044
0.164155 0.326903
0.164783 0.338968
0.165411 0.351220
0.166040 0.363644
0.166668 0.376224
0.167296 0.388947
0.167924 0.401799
0.168552 0.414768
0.169181 0.427842
0.169809 0.441011
0.170437 0.454262
0.171065 0.467587
0.171693 0.480975
0.172322 0.494416
0.172950 0.507902
0.173578 0.521424
0.174206 0.534973
0.174835 0.548539
0.175463 0.562115
0.176091 0.575692
0.176719 0.589263
0.177347 0.602818
0.177976 0.616350
0.178604 0.629850
0.179232 0.643311
0.179860 0.656725
0.180488 0.670084
0.181117 0.683380
0.181745 0.696606
0.182373 0.709753
0.183001 0.722814
0.183629 0.735781
0.184258 0.748647
0.184886 0.761404
0.185514 0.774046
0.186142 0.786563
0.186770 0.798951
0.187399 0.811201
0.188027 0.823306
0.188655 0.835261
0.189283 0.847058
0.189911 0.858691
0.190540 0.870155
0.191168 0.881443
0.191796 0.892550
0.192424 0.903472
0.193052 0.914203
0.193681 0.924740
0.194309 0.935078
0.194937 0.945215
0.195565 0.955147
0.196193 0.964873
0.196822 0.974390
0.197450 0.983697
0.198078 0.992794
0.198706 1.001681
0.199334 1.010358
0.199963 1.018827
0.200591 1.027089
0.201219 1.035147
0.201847 1.043003
0.202475 1.050662
0.203104 1.058126
0.203732 1.065400
0.204360 1.072489
0.204988 1.079398
0.205616 1.086132
0.206245 1.092696
0.206873 1.099096
0.207501 1.105338
0.208129 1.111427
0.208757 1.117369
0.209386 1.123169
0.210014 1.128832
0.210642 1.134364
0.211270 1.139769
0.211898 1.145052
0.212527 1.150216
0.213155 1.155266
0.213783 1.160204
0.214411 1.165033
0.215039 1.169757
0.215668 1.174375
0.216296 1.178890
0.216924 1.183303
0.217552 1.187615
0.218180 1.191824
0.218809 1.195931
0.219437 1.199935
0.220065 1.203835
0.220693 1.207628
0.221321 1.211314
0.221950 1.214890
0.222578 1.218353
0.223206 1.221700
0.223834 1.224930
0.224463 1.228038
0.225091 1.231021
0.225719 1.233877
0.226347 1.236602
0.226975 1.239192
0.227603 1.241644
0.228232 1.243956
0.228860 1.246123
0.229488 1.248143
0.230116 1.250013
0.230744 1.251731
0.231373 1.253292
0.232001 1.254696
0.232629 1.255940
0.233257 1.257022
0.233885 1.257941
0.234514 1.258694
0.235142 1.259282
0.235770 1.259702
0.236398 1.259954
0.237027 1.260038

0.237027 1.260038
0.237589 1.260041
0.238152 1.260049
0.238715 1.260062
0.239278 1.260080
0.239841 1.260104
0.240404 1.260132
0.240967 1.260165
0.241530 1.260203
0.242092 1.260246
0.242655 1.260292
0.243218 1.260343
0.243781 1.260398
0.244344 1.260457
0.244907 1.260519
0.245470 1.260584
0.246033 1.260652
0.246596 1.260723
0.247158 1.260796
0.247721 1.260871
0.248284 1.260948
0.248847 1.261027
0.249410 1.261106
0.249973 1.261187
0.250536 1.261268
0.251099 1.261350
0.251661 1.261431
0.252224 1.261513
0.252787 1.261594
0.253350 1.261674
0.253913 1.261754
0.254476 1.261832
0.255039 1.261909
0.255602 1.261985
0.256165 1.262058
0.256727 1.262130
0.257290 1.262200
0.257853 1.262267
0.258416 1.262333
0.258979 1.262396
0.259542 1.262456
0.260105 1.262514
0.260668 1.262569
0.261231 1.262622
0.261794 1.262672
0.262356 1.262719
0.262919 1.262764
0.263482 1.262806
0.264045 1.262846
0.264608 1.262883
0.265171 1.262918
0.265734 1.262951
0.266297 1.262982
0.266860 1.263010
0.267422 1.263037
0.267985 1.263062
0.268548 1.263086
0.269111 1.263108
0.269674 1.263129
0.270237 1.263149
0.270800 1.263168
0.271363 1.263187
0.271925 1.263205
0.272488 1.263223
0.273051 1.263241
0.273614 1.263260
0.274177 1.263280
0.274740 1.263300
0.275303 1.263321
0.275866 1.263344
0.276429 1.263368
0.276991 1.263395
0.277554 1.263423
0.278117 1.263454
0.278680 1.263488
0.279243 1.263525
0.279806 1.263565
0.280369 1.263608
0.280932 1.263656
0.281494 1.263707
0.282057 1.263763
0.282620 1.263823
0.283183 1.263888
0.283746 1.263958
0.284309 1.264033
0.284872 1.264114
0.285435 1.264200
0.285998 1.264293
0.286560 1.264391
0.287123 1.264496
0.287686 1.264607
0.288249 1.264725
0.288812 1.264850
0.289375 1.264982
0.289938 1.265121
0.290501 1.265267
0.291064 1.265421
0.291627 1.265583
0.292189 1.265752
0.292752 1.265929
0.293315 1.266113
0.293878 1.266306
0.294441 1.266507
0.295004 1.266716
0.295567 1.266932
0.296129 1.267158
0.296692 1.267391
0.297255 1.267632
0.297818 1.267882
0.298381 1.268139
0.298944 1.268405
0.299507 1.268679
0.300070 1.268961
0.300633 1.269251
0.301196 1.269549
0.301758 1.269855
0.302321 1.270168
0.302884 1.270489
0.303447 1.270817
0.304010 1.271153
0.304573 1.271496
0.305136 1.271846
0.305699 1.272203
0.306262 1.272566
0.306824 1.272936
0.307387 1.273312
0.307950 1.273695
0.308513 1.274083
0.309076 1.274477
0.309639 1.274876
0.310202 1.275280
0.310765 1.275689
0.311327 1.276103
0.311890 1.276521
0.312453 1.276943
0.313016 1.277369
0.313579 1.277798
0.314142 1.278231
0.314705 1.278666
0.315268 1.279104
0.315831 1.279544
0.316393 1.279986
0.316956 1.280430
0.317519 1.280874
0.318082 1.281320
0.318645 1.281766
0.319208 1.282212
0.319771 1.282658
0.320334 1.283103
0.320896 1.283548
0.321459 1.283991
0.322022 1.284432
0.322585 1.284872
0.323148 1.285309
0.323711 1.285744
0.324274 1.286175
0.324837 1.286603
0.325400 1.287027
0.325962 1.287447
0.326525 1.287862
0.327088 1.288273
0.327651 1.288678
0.328214 1.289077
0.328777 1.289471
0.329340 1.289858
0.329903 1.290239
0.330466 1.290613
0.331029 1.290979
0.331591 1.291338
0.332154 1.291689
0.332717 1.292032
0.333280 1.292366
0.333843 1.292691
0.334406 1.293007
0.334969 1.293314
0.335532 1.293611
0.336095 1.293898
0.336657 1.294174
0.337220 1.294441
0.337783 1.294696
0.338346 1.294941
0.338909 1.295174
0.339472 1.295397
0.340035 1.295607
0.340598 1.295806
0.341160 1.295993
0.341723 1.296167
0.342286 1.296330
0.342849 1.296479
0.343412 1.296617
0.343975 1.296741
0.344538 1.296853
0.345101 1.296952
0.345664 1.297038
0.346226 1.297111
0.346789 1.297171
0.347352 1.297217
0.347915 1.297250
0.348478 1.297270
0.349041 1.297277

0.349041 1.297277
0.349669 1.297186
0.350297 1.296915
0.350926 1.296462
0.351554 1.295829
0.352182 1.295016
0.352810 1.294025
0.353438 1.292856
0.354067 1.291510
0.354695 1.289990
0.355323 1.288296
0.355951 1.286431
0.356579 1.284396
0.357208 1.282194
0.357836 1.279827
0.358464 1.277297
0.359092 1.274607
0.359720 1.271760
0.360349 1.268757
0.360977 1.265603
0.361605 1.262301
0.362233 1.258852
0.362861 1.255261
0.363490 1.251531
0.364118 1.247664
0.364746 1.243664
0.365374 1.239535
0.366002 1.235280
0.366631 1.230903
0.367259 1.226406
0.367887 1.221793
0.368515 1.217067
0.369143 1.212232
0.369771 1.207292
0.370400 1.202249
0.371028 1.197108
0.371656 1.191870
0.372284 1.186540
0.372912 1.181120
0.373541 1.175615
0.374169 1.170026
0.374797 1.164356
0.375425 1.158610
0.376053 1.152789
0.376682 1.146896
0.377310 1.140934
0.377938 1.134906
0.378566 1.128814
0.379194 1.122660
0.379823 1.116447
0.380451 1.110177
0.381079 1.103852
0.381707 1.097475
0.382335 1.091047
0.382964 1.084569
0.383592 1.078045
0.384220 1.071474
0.384848 1.064860
0.385476 1.058203
0.386105 1.051504
0.386733 1.044766
0.387361 1.037988
0.387989 1.031173
0.388618 1.024320
0.389246 1.017432
0.389874 1.010508
0.390502 1.003550
0.391130 0.996557
0.391759 0.989531
0.392387 0.982472
0.393015 0.975381
0.393643 0.968256
0.394271 0.961100
0.394900 0.953911
0.395528 0.946691
0.396156 0.939438
0.396784 0.932153
0.397412 0.924836
0.398041 0.917486
0.398669 0.910104
0.399297 0.902688
0.399925 0.895240
0.400553 0.887757
0.401182 0.880241
0.401810 0.872689
0.402438 0.865103
0.403066 0.857481
0.403694 0.849823
0.404323 0.842129
0.404951 0.834397
0.405579 0.826627
0.406207 0.818819
0.406835 0.810971
0.407464 0.803084
0.408092 0.795156
0.408720 0.787188
0.409348 0.779177
0.409976 0.771125
0.410605 0.763029
0.411233 0.754890
0.411861 0.746707
0.412489 0.738479
0.413117 0.730205
0.413746 0.721886
0.414374 0.713520
0.415002 0.705108
0.415630 0.696648
0.416258 0.688140
0.416887 0.679584
0.417515 0.670980
0.418143 0.662326
0.418771 0.653624
0.419399 0.644871
0.420028 0.636069
0.420656 0.627217
0.421284 0.618315
0.421912 0.609363
0.422540 0.600360
0.423169 0.591307
0.423797 0.582204
0.424425 0.573051
0.425053 0.563847
0.425681 0.554594
0.426310 0.545291
0.426938 0.535938
0.427566 0.526536
0.428194 0.517086
0.428822 0.507587
0.429451 0.498040
0.430079 0.488445
0.430707 0.478804
0.431335 0.469116
0.431964 0.459381
0.432592 0.449601
0.433220 0.439776
0.433848 0.429907
0.434476 0.419993
0.435105 0.410036
0.435733 0.400036
0.436361 0.389993
0.436989 0.379908
0.437617 0.369780
0.438246 0.359610
0.438874 0.349398
0.439502 0.339142
0.440130 0.328843
0.440758 0.318499
0.441387 0.308109
0.442015 0.297671
0.442643 0.287181
0.443271 0.276637
0.443899 0.266034
0.444528 0.255367
0.445156 0.244627
0.445784 0.233806
0.446412 0.222891
0.447040 0.211869
0.447669 0.200719
0.448297 0.189418
0.448925 0.177933
0.449553 0.166221
0.450181 0.154227
0.450809 0.141870
0.451438 0.129038
0.452066 0.115563
0.452694 0.101174
0.453322 0.085392
0.453950 0.067225
0.454579 0.043764
0.455207 -0.022862
0.455835 -0.052885
0.456463 -0.070063
0.457091 -0.082824
0.457720 -0.093004
0.458348 -0.101382
0.458976 -0.108369
0.459604 -0.114218
0.460232 -0.119091
0.460861 -0.123109
0.461489 -0.126362
0.462117 -0.128931
0.462745 -0.130887
0.463373 -0.132308
0.464002 -0.133282
0.464630 -0.133921
0.465258 -0.134377
0.465886 -0.134820
0.466515 -0.135361
0.467143 -0.135979
0.467771 -0.136584
0.468399 -0.137103
0.469027 -0.137502
0.469656 -0.137771
0.470284 -0.137917
0.470912 -0.137960
0.471540 -0.137928
0.472168 -0.137851
0.472797 -0.137765
0.473425 -0.137699
0.474053 -0.137675


0.000000 -0.071857
0.000563 -0.070935
0.001126 -0.068107
0.001689 -0.063153
0.002252 -0.055558
0.002814 -0.044042
0.003377 -0.023489
0.003940 0.032773
0.004503 0.054186
0.005066 0.070953
0.005629 0.085845
0.006192 0.099713
0.006755 0.112944
0.007318 0.125746
0.007880 0.138250
0.008443 0.150536
0.009006 0.162663
0.009569 0.174671
0.010132 0.186590
0.010695 0.198443
0.011258 0.210246
0.011821 0.222014
0.012384 0.233758
0.012946 0.245485
0.013509 0.257202
0.014072 0.268914
0.014635 0.280627
0.015198 0.292343
0.015761 0.304065
0.016324 0.315796
0.016887 0.327536
0.017449 0.339287
0.018012 0.351050
0.018575 0.362825
0.019138 0.374613
0.019701 0.386413
0.020264 0.398225
0.020827 0.410049
0.021390 0.421883
0.021953 0.433728
0.022516 0.445582
0.023078 0.457444
0.023641 0.469313
0.024204 0.481188
0.024767 0.493067
0.025330 0.504949
0.025893 0.516833
0.026456 0.528717
0.027019 0.540599
0.027581 0.552478
0.028144 0.564353
0.028707 0.576221
0.029270 0.588081
0.029833 0.599931
0.030396 0.611769
0.030959 0.623594
0.031522 0.635404
0.032085 0.647196
0.032647 0.658971
0.033210 0.670724
0.033773 0.682456
0.034336 0.694164
0.034899 0.705846
0.035462 0.717500
0.036025 0.729126
0.036588 0.740720
0.037151 0.752282
0.037713 0.763809
0.038276 0.775301
0.038839 0.786755
0.039402 0.798170
0.039965 0.809544
0.040528 0.820875
0.041091 0.832162
0.041654 0.843404
0.042216 0.854598
0.042779 0.865743
0.043342 0.876838
0.043905 0.887881
0.044468 0.898871
0.045031 0.909806
0.045594 0.920684
0.046157 0.931505
0.046720 0.942266
0.047282 0.952967
0.047845 0.963605
0.048408 0.974180
0.048971 0.984690
0.049534 0.995133
0.050097 1.005508
0.050660 1.015815
0.051223 1.026050
0.051785 1.036214
0.052348 1.046304
0.052911 1.056320
0.053474 1.066259
0.054037 1.076121
0.054600 1.085904
0.055163 1.095607
0.055726 1.105228
0.056289 1.114767
0.056851 1.124221
0.057414 1.133589
0.057977 1.142870
0.058540 1.152063
0.059103 1.161166
0.059666 1.170178
0.060229 1.179097
0.060792 1.187922
0.061355 1.196652
0.061918 1.205286
0.062480 1.213821
0.063043 1.222257
0.063606 1.230592
0.064169 1.238825
0.064732 1.246954
0.065295 1.254979
0.065858 1.262897
0.066421 1.270708
0.066984 1.278411
0.067546 1.286003
0.068109 1.293484
0.068672 1.300852
0.069235 1.308107
0.069798 1.315247
0.070361 1.322271
0.070924 1.329178
0.071487 1.335967
0.072049 1.342636
0.072612 1.349186
0.073175 1.355615
0.073738 1.361923
0.074301 1.368108
0.074864 1.374170
0.075427 1.380108
0.075990 1.385922
0.076552 1.391612
0.077115 1.397176
0.077678 1.402616
0.078241 1.407930
0.078804 1.413119
0.079367 1.418182
0.079930 1.423120
0.080493 1.427933
0.081056 1.432621
0.081618 1.437186
0.082181 1.441626
0.082744 1.445943
0.083307 1.450138
0.083870 1.454212
0.084433 1.458165
0.084996 1.461998
0.085559 1.465713
0.086122 1.469311
0.086684 1.472793
0.087247 1.476161
0.087810 1.479416
0.088373 1.482559
0.088936 1.485593
0.089499 1.488518
0.090062 1.491337
0.090625 1.494052
0.091188 1.496664
0.091750 1.499175
0.092313 1.501587
0.092876 1.503902
0.093439 1.506122
0.094002 1.508249
0.094565 1.510285
0.095128 1.512232
0.095691 1.514093
0.096254 1.515868
0.096816 1.517560
0.097379 1.519171
0.097942 1.520703
0.098505 1.522158
0.099068 1.523538
0.099631 1.524844
0.100194 1.526078
0.100757 1.527243
0.101320 1.528339
0.101882 1.529369
0.102445 1.530333
0.103008 1.531235
0.103571 1.532073
0.104134 1.532852
0.104697 1.533570
0.105260 1.534231
0.105823 1.534834
0.106385 1.535382
0.106948 1.535874
0.107511 1.536312
0.108074 1.536697
0.108637 1.537029
0.109200 1.537309
0.109763 1.537537
0.110326 1.537714
0.110889 1.537840
0.111451 1.537916
0.112014 1.537941

0.112014 1.537941
0.112643 1.537943
0.113271 1.537950
0.113899 1.537962
0.114527 1.537978
0.115155 1.537999
0.115784 1.538024
0.116412 1.538055
0.117040 1.538090
0.117668 1.538130
0.118296 1.538175
0.118925 1.538225
0.119553 1.538281
0.120181 1.538341
0.120809 1.538406
0.121437 1.538477
0.122066 1.538553
0.122694 1.538633
0.123322 1.538719
0.123950 1.538810
0.124578 1.538906
0.125207 1.539006
0.125835 1.539111
0.126463 1.539220
0.127091 1.539333
0.127719 1.539449
0.128348 1.539570
0.128976 1.539693
0.129604 1.539819
0.130232 1.539947
0.130860 1.540077
0.131489 1.540208
0.132117 1.540340
0.132745 1.540472
0.133373 1.540603
0.134001 1.540733
0.134630 1.540861
0.135258 1.540987
0.135886 1.541109
0.136514 1.541227
0.137142 1.541340
0.137771 1.541446
0.138399 1.541546
0.139027 1.541637
0.139655 1.541720
0.140283 1.541792
0.140912 1.541853
0.141540 1.541901
0.142168 1.541936
0.142796 1.541956
0.143424 1.541960
0.144053 1.541946
0.144681 1.541913
0.145309 1.541860
0.145937 1.541784
0.146565 1.541686
0.147194 1.541563
0.147822 1.541413
0.148450 1.541235
0.149078 1.541027
0.149706 1.540788
0.150335 1.540516
0.150963 1.540210
0.151591 1.539867
0.152219 1.539485
0.152847 1.539064
0.153476 1.538601
0.154104 1.538095
0.154732 1.537543
0.155360 1.536945
0.155989 1.536299
0.156617 1.535603
0.157245 1.534855
0.157873 1.534054
0.158501 1.533198
0.159130 1.532287
0.159758 1.531319
0.160386 1.530292
0.161014 1.529207
0.161642 1.528061
0.162271 1.526855
0.162899 1.525587
0.163527 1.524257
0.164155 1.522866
0.164783 1.521413
0.165411 1.519897
0.166040 1.518321
0.166668 1.516683
0.167296 1.514986
0.167924 1.513229
0.168552 1.511415
0.169181 1.509545
