# distance  frequency (bands are separated by blank lines)
# End points of segments: 
#   0.00000000 0.12399690 0.23445920 0.35845610 0.46891840 
0.000000 -0.095237
0.000623 -0.104644
0.001246 -0.126239
0.001869 -0.147050
0.002492 -0.165555
0.003116 -0.182188
0.003739 -0.197361
0.004362 -0.211374
0.004985 -0.224442
0.005608 -0.236724
0.006231 -0.248340
0.006854 -0.259380
0.007477 -0.269917
0.008100 -0.280007
0.008723 -0.289694
0.009347 -0.299013
0.009970 -0.307994
0.010593 -0.316656
0.011216 -0.325017
0.011839 -0.333088
0.012462 -0.340877
0.013085 -0.348389
0.013708 -0.355625
0.014331 -0.362585
0.014954 -0.369266
0.015577 -0.375664
0.016201 -0.381773
0.016824 -0.387586
0.017447 -0.393094
0.018070 -0.398290
0.018693 -0.403164
0.019316 -0.407706
0.019939 -0.411907
0.020562 -0.415757
0.021185 -0.419244
0.021809 -0.422361
0.022432 -0.425095
0.023055 -0.427438
0.023678 -0.429379
0.024301 -0.430909
0.024924 -0.432017
0.025547 -0.432694
0.026170 -0.432929
0.026793 -0.432712
0.027416 -0.432033
0.028039 -0.430880
0.028663 -0.429241
0.029286 -0.427105
0.029909 -0.424458
0.030532 -0.421284
0.031155 -0.417569
0.031778 -0.413295
0.032401 -0.408441
0.033024 -0.402985
0.033647 -0.396902
0.034271 -0.390162
0.034894 -0.382732
0.035517 -0.374571
0.036140 -0.365633
0.036763 -0.355862
0.037386 -0.345192
0.038009 -0.333538
0.038632 -0.320800
0.039255 -0.306847
0.039878 -0.291511
0.040502 -0.274567
0.041125 -0.255705
0.041748 -0.234470
0.042371 -0.210156
0.042994 -0.181540
0.043617 -0.146135
0.044240 -0.096780
0.044863 0.054825
0.045486 0.125521
0.046109 0.169934
0.046733 0.205832
0.047356 0.237102
0.047979 0.265375
0.048602 0.291514
0.049225 0.316040
0.049848 0.339295
0.050471 0.361515
0.051094 0.382873
0.051717 0.403498
0.052340 0.423491
0.052963 0.442929
0.053587 0.461875
0.054210 0.480382
0.054833 0.498492
0.055456 0.516240
0.056079 0.533656
0.056702 0.550766
0.057325 0.567590
0.057948 0.584149
0.058571 0.600458
0.059194 0.616531
0.059818 0.632382
0.060441 0.648019
0.061064 0.663455
0.061687 0.678696
0.062310 0.693750
0.062933 0.708625
0.063556 0.723325
0.064179 0.737857
0.064802 0.752225
0.065425 0.766434
0.066049 0.780487
0.066672 0.794387
0.067295 0.808138
0.067918 0.821743
0.068541 0.835203
0.069164 0.848522
0.069787 0.861701
0.070410 0.874741
0.071033 0.887645
0.071656 0.900414
0.072280 0.913049
0.072903 0.925551
0.073526 0.937921
0.074149 0.950160
0.074772 0.962268
0.075395 0.974247
0.076018 0.986097
0.076641 0.997818
0.077264 1.009410
0.077887 1.020875
0.078511 1.032211
0.079134 1.043420
0.079757 1.054501
0.080380 1.065455
0.081003 1.076281
0.081626 1.086979
0.082249 1.097550
0.082872 1.107993
0.083495 1.118308
0.084118 1.128494
0.084742 1.138552
0.085365 1.148482
0.085988 1.158282
0.086611 1.167953
0.087234 1.177494
0.087857 1.186905
0.088480 1.196185
0.089103 1.205334
0.089726 1.214352
0.090349 1.223238
0.090973 1.231991
0.091596 1.240611
0.092219 1.249097
0.092842 1.257450
0.093465 1.265667
0.094088 1.273749
0.094711 1.281695
0.095334 1.289504
0.095957 1.297175
0.096580 1.304708
0.097204 1.312101
0.097827 1.319355
0.098450 1.326468
0.099073 1.333438
0.099696 1.340267
0.100319 1.346951
0.100942 1.353491
0.101565 1.359884
0.102188 1.366131
0.102812 1.372230
0.103435 1.378179
0.104058 1.383978
0.104681 1.389624
0.105304 1.395117
0.105927 1.400456
0.106550 1.405638
0.107173 1.410663
0.107796 1.415528
0.108419 1.420232
0.109043 1.424773
0.109666 1.429149
0.110289 1.433359
0.110912 1.437401
0.111535 1.441273
0.112158 1.444973
0.112781 1.448499
0.113404 1.451849
0.114027 1.455020
0.114650 1.458012
0.115274 1.460823
0.115897 1.463449
0.116520 1.465890
0.117143 1.468143
0.117766 1.470206
0.118389 1.472079
0.119012 1.473760
0.119635 1.475246
0.120258 1.476537
0.120881 1.477631
0.121505 1.478528
0.122128 1.479227
0.122751 1.479726
0.123374 1.480026
0.123997 1.480126

0.123997 1.480126
0.124552 1.480130
0.125107 1.480142
0.125662 1.480163
0.126217 1.480191
0.126772 1.480227
0.127327 1.480272
0.127883 1.480324
0.128438 1.480384
0.128993 1.480452
0.129548 1.480527
0.130103 1.480609
0.130658 1.480699
0.131213 1.480796
0.131768 1.480899
0.132323 1.481010
0.132878 1.481127
0.133433 1.481250
0.133988 1.481379
0.134544 1.481513
0.135099 1.481653
0.135654 1.481799
0.136209 1.481949
0.136764 1.482104
0.137319 1.482263
0.137874 1.482426
0.138429 1.482592
0.138984 1.482762
0.139539 1.482935
0.140094 1.483110
0.140650 1.483287
0.141205 1.483465
0.141760 1.483645
0.142315 1.483826
0.142870 1.484007
0.143425 1.484189
0.143980 1.484369
0.144535 1.484549
0.145090 1.484727
0.145645 1.484904
0.146200 1.485077
0.146755 1.485248
0.147311 1.485416
0.147866 1.485580
0.148421 1.485739
0.148976 1.485893
0.149531 1.486042
0.150086 1.486184
0.150641 1.486321
0.151196 1.486450
0.151751 1.486571
0.152306 1.486684
0.152861 1.486788
0.153417 1.486883
0.153972 1.486968
0.154527 1.487042
0.155082 1.487105
0.155637 1.487157
0.156192 1.487196
0.156747 1.487222
0.157302 1.487235
0.157857 1.487234
0.158412 1.487218
0.158967 1.487186
0.159522 1.487139
0.160078 1.487075
0.160633 1.486994
0.161188 1.486895
0.161743 1.486777
0.162298 1.486641
0.162853 1.486484
0.163408 1.486307
0.163963 1.486109
0.164518 1.485889
0.165073 1.485646
0.165628 1.485380
0.166184 1.485090
0.166739 1.484775
0.167294 1.484434
0.167849 1.484068
0.168404 1.483674
0.168959 1.483252
0.169514 1.482801
0.170069 1.482321
0.170624 1.481810
0.171179 1.481268
0.171734 1.480693
0.172289 1.480085
0.172845 1.479442
0.173400 1.478764
0.173955 1.478049
0.174510 1.477296
0.175065 1.476505
0.175620 1.475674
0.176175 1.474801
0.176730 1.473885
0.177285 1.472926
0.177840 1.471921
0.178395 1.470869
0.178951 1.469768
0.179506 1.468618
0.180061 1.467416
0.180616 1.466160
0.181171 1.464850
0.181726 1.463482
0.182281 1.462056
0.182836 1.460570
0.183391 1.459020
0.183946 1.457406
0.184501 1.455726
0.185056 1.453977
0.185612 1.452157
0.186167 1.450264
0.186722 1.448296
0.187277 1.446251
0.187832 1.444126
0.188387 1.441920
0.188942 1.439631
0.189497 1.437255
0.190052 1.434793
0.190607 1.432241
0.191162 1.429598
0.191718 1.426862
0.192273 1.424032
0.192828 1.421106
0.193383 1.418083
0.193938 1.414963
0.194493 1.411744
0.195048 1.408427
0.195603 1.405010
0.196158 1.401494
0.196713 1.397880
0.197268 1.394168
0.197823 1.390358
0.198379 1.386454
0.198934 1.382455
0.199489 1.378365
0.200044 1.374185
0.200599 1.369919
0.201154 1.365569
0.201709 1.361138
0.202264 1.356631
0.202819 1.352052
0.203374 1.347404
0.203929 1.342692
0.204485 1.337921
0.205040 1.333095
0.205595 1.328221
0.206150 1.323303
0.206705 1.318346
0.207260 1.313357
0.207815 1.308342
0.208370 1.303305
0.208925 1.298253
0.209480 1.293192
0.210035 1.288129
0.210590 1.283068
0.211146 1.278017
0.211701 1.272981
0.212256 1.267966
0.212811 1.262980
0.213366 1.258027
0.213921 1.253114
0.214476 1.248246
0.215031 1.243431
0.215586 1.238673
0.216141 1.233979
0.216696 1.229354
0.217251 1.224804
0.217807 1.220335
0.218362 1.215952
0.218917 1.211661
0.219472 1.207466
0.220027 1.203374
0.220582 1.199390
0.221137 1.195518
0.221692 1.191763
0.222247 1.188130
0.222802 1.184624
0.223357 1.181249
0.223912 1.178009
0.224468 1.174909
0.225023 1.171953
0.225578 1.169144
0.226133 1.166486
0.226688 1.163983
0.227243 1.161638
0.227798 1.159454
0.228353 1.157433
0.228908 1.155579
0.229463 1.153894
0.230018 1.152380
0.230574 1.151040
0.231129 1.149875
0.231684 1.148886
0.232239 1.148075
0.232794 1.147443
0.233349 1.146991
0.233904 1.146720
0.234459 1.146629

0.234459 1.146629
0.235082 1.146732
0.235705 1.147038
0.236328 1.147549
0.236952 1.148260
0.237575 1.149170
0.238198 1.150275
0.238821 1.151571
0.239444 1.153054
0.240067 1.154718
0.240690 1.156556
0.241313 1.158563
0.241936 1.160731
0.242560 1.163052
0.243183 1.165519
0.243806 1.168124
0.244429 1.170856
0.245052 1.173709
0.245675 1.176671
0.246298 1.179735
0.246921 1.182891
0.247544 1.186128
0.248167 1.189439
0.248790 1.192813
0.249414 1.196240
0.250037 1.199713
0.250660 1.203221
0.251283 1.206756
0.251906 1.210308
0.252529 1.213870
0.253152 1.217433
0.253775 1.220990
0.254398 1.224531
0.255022 1.228050
0.255645 1.231539
0.256268 1.234992
0.256891 1.238401
0.257514 1.241759
0.258137 1.245061
0.258760 1.248299
0.259383 1.251469
0.260006 1.254563
0.260629 1.257576
0.261252 1.260502
0.261876 1.263335
0.262499 1.266070
0.263122 1.268701
0.263745 1.271222
0.264368 1.273628
0.264991 1.275912
0.265614 1.278069
0.266237 1.280093
0.266860 1.281978
0.267483 1.283717
0.268107 1.285304
0.268730 1.286733
0.269353 1.287996
0.269976 1.289088
0.270599 1.290002
0.271222 1.290729
0.271845 1.291264
0.272468 1.291600
0.273091 1.291729
0.273715 1.291645
0.274338 1.291341
0.274961 1.290811
0.275584 1.290050
0.276207 1.289053
0.276830 1.287815
0.277453 1.286333
0.278076 1.284605
0.278699 1.282630
0.279322 1.280408
0.279946 1.277940
0.280569 1.275230
0.281192 1.272281
0.281815 1.269100
0.282438 1.265693
0.283061 1.262069
0.283684 1.258236
0.284307 1.254205
0.284930 1.249988
0.285553 1.245594
0.286177 1.241038
0.286800 1.236330
0.287423 1.231484
0.288046 1.226512
0.288669 1.221428
0.289292 1.216242
0.289915 1.210969
0.290538 1.205619
0.291161 1.200204
0.291784 1.194735
0.292407 1.189224
0.293031 1.183680
0.293654 1.178114
0.294277 1.172535
0.294900 1.166953
0.295523 1.161375
0.296146 1.155811
0.296769 1.150267
0.297392 1.144751
0.298015 1.139271
0.298638 1.133832
0.299262 1.128441
0.299885 1.123103
0.300508 1.117824
0.301131 1.112609
0.301754 1.107462
0.302377 1.102387
0.303000 1.097389
0.303623 1.092471
0.304246 1.087635
0.304870 1.082886
0.305493 1.078226
0.306116 1.073656
0.306739 1.069179
0.307362 1.064797
0.307985 1.060511
0.308608 1.056322
0.309231 1.052232
0.309854 1.048240
0.310477 1.044347
0.311101 1.040553
0.311724 1.036859
0.312347 1.033264
0.312970 1.029767
0.313593 1.026368
0.314216 1.023067
0.314839 1.019861
0.315462 1.016750
0.316085 1.013733
0.316708 1.010807
0.317331 1.007972
0.317955 1.005225
0.318578 1.002565
0.319201 0.999990
0.319824 0.997497
0.320447 0.995085
0.321070 0.992751
0.321693 0.990492
0.322316 0.988307
0.322939 0.986193
0.323562 0.984148
0.324186 0.982170
0.324809 0.980255
0.325432 0.978401
0.326055 0.976606
0.326678 0.974869
0.327301 0.973185
0.327924 0.971553
0.328547 0.969971
0.329170 0.968437
0.329794 0.966948
0.330417 0.965503
0.331040 0.964099
0.331663 0.962735
0.332286 0.961410
0.332909 0.960120
0.333532 0.958866
0.334155 0.957646
0.334778 0.956458
0.335401 0.955302
0.336025 0.954176
0.336648 0.953079
0.337271 0.952012
0.337894 0.950973
0.338517 0.949961
0.339140 0.948977
0.339763 0.948020
0.340386 0.947090
0.341009 0.946186
0.341632 0.945310
0.342255 0.944460
0.342879 0.943637
0.343502 0.942842
0.344125 0.942074
0.344748 0.941334
0.345371 0.940622
0.345994 0.939940
0.346617 0.939286
0.347240 0.938662
0.347863 0.938067
0.348486 0.937504
0.349110 0.936972
0.349733 0.936471
0.350356 0.936002
0.350979 0.935566
0.351602 0.935163
0.352225 0.934793
0.352848 0.934458
0.353471 0.934156
0.354094 0.933889
0.354718 0.933657
0.355341 0.933461
0.355964 0.933299
0.356587 0.933174
0.357210 0.933084
0.357833 0.933030
0.358456 0.933012

0.358456 0.933012
0.359011 0.932869
0.359566 0.932444
0.360121 0.931738
0.360676 0.930758
0.361231 0.929511
0.361787 0.928007
0.362342 0.926257
0.362897 0.924272
0.363452 0.922065
0.364007 0.919650
0.364562 0.917040
0.365117 0.914250
0.365672 0.911292
0.366227 0.908180
0.366782 0.904926
0.367337 0.901544
0.367893 0.898044
0.368448 0.894438
0.369003 0.890736
0.369558 0.886947
0.370113 0.883080
0.370668 0.879145
0.371223 0.875148
0.371778 0.871096
0.372333 0.866996
0.372888 0.862854
0.373443 0.858674
0.373999 0.854463
0.374554 0.850225
0.375109 0.845963
0.375664 0.841681
0.376219 0.837383
0.376774 0.833071
0.377329 0.828748
0.377884 0.824416
0.378439 0.820077
0.378994 0.815734
0.379549 0.811387
0.380104 0.807038
0.380659 0.802688
0.381215 0.798339
0.381770 0.793990
0.382325 0.789642
0.382880 0.785296
0.383435 0.780952
0.383990 0.776611
0.384545 0.772271
0.385100 0.767934
0.385655 0.763598
0.386210 0.759264
0.386765 0.754931
0.387321 0.750599
0.387876 0.746266
0.388431 0.741933
0.388986 0.737599
0.389541 0.733261
0.390096 0.728921
0.390651 0.724576
0.391206 0.720226
0.391761 0.715870
0.392316 0.711506
0.392871 0.707133
0.393427 0.702750
0.393982 0.698355
0.394537 0.693948
0.395092 0.689527
0.395647 0.685090
0.396202 0.680636
0.396757 0.676164
0.397312 0.671672
0.397867 0.667158
0.398422 0.662620
0.398977 0.658058
0.399533 0.653470
0.400088 0.648853
0.400643 0.644207
0.401198 0.639528
0.401753 0.634817
0.402308 0.630071
0.402863 0.625287
0.403418 0.620465
0.403973 0.615602
0.404528 0.610697
0.405083 0.605748
0.405639 0.600753
0.406193 0.595709
0.406749 0.590616
0.407304 0.585471
0.407859 0.580271
0.408414 0.575016
0.408969 0.569702
0.409524 0.564329
0.410079 0.558893
0.410634 0.553393
0.411189 0.547827
0.411744 0.542191
0.412299 0.536485
0.412855 0.530705
0.413410 0.524850
0.413965 0.518916
0.414520 0.512902
0.415075 0.506805
0.415630 0.500622
0.416185 0.494351
0.416740 0.487989
0.417295 0.481532
0.417850 0.474978
0.418405 0.468324
0.418961 0.461566
0.419516 0.454702
0.420071 0.447726
0.420626 0.440637
0.421181 0.433429
0.421736 0.426099
0.422291 0.418641
0.422846 0.411051
0.423401 0.403324
0.423956 0.395454
0.424511 0.387435
0.425067 0.379261
0.425622 0.370924
0.426177 0.362415
0.426732 0.353727
0.427287 0.344849
0.427842 0.335771
0.428397 0.326479
0.428952 0.316959
0.429507 0.307196
0.430062 0.297170
0.430617 0.286860
0.431173 0.276239
0.431727 0.265276
0.432283 0.253935
0.432838 0.242169
0.433393 0.229922
0.433948 0.217120
0.434503 0.203669
0.435058 0.189441
0.435613 0.174257
0.436168 0.157855
0.436723 0.139821
0.437278 0.119437
0.437833 0.095228
0.438389 0.062960
0.438944 -0.032306
0.439499 -0.077136
0.440054 -0.103684
0.440609 -0.124258
0.441164 -0.141473
0.441719 -0.156426
0.442274 -0.169702
0.442829 -0.181656
0.443384 -0.192523
0.443939 -0.202465
0.444495 -0.211601
0.445050 -0.220021
0.445605 -0.227794
0.446160 -0.234975
0.446715 -0.241605
0.447270 -0.247720
0.447825 -0.253348
0.448380 -0.258512
0.448935 -0.263230
0.449490 -0.267518
0.450045 -0.271388
0.450601 -0.274850
0.451156 -0.277910
0.451711 -0.280576
0.452266 -0.282850
0.452821 -0.284735
0.453376 -0.286232
0.453931 -0.287339
0.454486 -0.288056
0.455041 -0.288379
0.455596 -0.288303
0.456151 -0.287821
0.456707 -0.286926
0.457261 -0.285609
0.457817 -0.283858
0.458372 -0.281659
0.458927 -0.278998
0.459482 -0.275855
0.460037 -0.272210
0.460592 -0.268036
0.461147 -0.263306
0.461702 -0.257983
0.462257 -0.252025
0.462812 -0.245384
0.463367 -0.237998
0.463923 -0.229791
0.464478 -0.220670
0.465033 -0.210514
0.465588 -0.199165
0.466143 -0.186410
0.466698 -0.171950
0.467253 -0.155353
0.467808 -0.135989
0.468363 -0.113276
0.468918 -0.095237


0.000000 -0.048693
0.000623 0.059865
0.001246 0.098391
0.001869 0.126381
0.002492 0.149699
0.003116 0.170252
0.003739 0.188950
0.004362 0.206318
0.004985 0.222688
0.005608 0.238291
0.006231 0.253292
0.006854 0.267818
0.007477 0.281967
0.008100 0.295816
0.008723 0.309432
0.009347 0.322868
0.009970 0.336169
0.010593 0.349376
0.011216 0.362522
0.011839 0.375636
0.012462 0.388747
0.013085 0.401876
0.013708 0.415045
0.014331 0.428273
0.014954 0.441576
0.015577 0.454970
0.016201 0.468468
0.016824 0.482083
0.017447 0.495825
0.018070 0.509706
0.018693 0.523733
0.019316 0.537916
0.019939 0.552260
0.020562 0.566774
0.021185 0.581463
0.021809 0.596331
0.022432 0.611384
0.023055 0.626625
0.023678 0.642058
0.024301 0.657685
0.024924 0.673509
0.025547 0.689531
0.026170 0.705753
0.026793 0.722176
0.027416 0.738798
0.028039 0.755622
0.028663 0.772645
0.029286 0.789867
0.029909 0.807285
0.030532 0.824899
0.031155 0.842706
0.031778 0.860701
0.032401 0.878883
0.033024 0.897247
0.033647 0.915789
0.034271 0.934503
0.034894 0.953384
0.035517 0.972427
0.036140 0.991624
0.036763 1.010968
0.037386 1.030453
0.038009 1.050070
0.038632 1.069810
0.039255 1.089664
0.039878 1.109623
0.040502 1.129676
0.041125 1.149812
0.041748 1.170020
0.042371 1.190288
0.042994 1.210604
0.043617 1.230953
0.044240 1.251324
0.044863 1.271701
0.045486 1.292069
0.046109 1.312413
0.046733 1.332717
0.047356 1.352963
0.047979 1.373135
0.048602 1.393214
0.049225 1.413182
0.049848 1.433018
0.050471 1.452702
0.051094 1.472215
0.051717 1.491534
0.052340 1.510636
0.052963 1.529501
0.053587 1.548103
0.054210 1.566421
0.054833 1.584431
0.055456 1.602110
0.056079 1.619434
0.056702 1.636381
0.057325 1.652930
0.057948 1.669062
0.058571 1.684758
0.059194 1.700002
0.059818 1.714782
0.060441 1.729089
0.061064 1.742916
0.061687 1.756262
0.062310 1.769129
0.062933 1.781525
0.063556 1.793460
0.064179 1.804951
0.064802 1.816020
0.065425 1.826690
0.066049 1.836990
0.066672 1.846954
0.067295 1.856616
0.067918 1.866015
0.068541 1.875190
0.069164 1.884184
0.069787 1.893040
0.070410 1.901802
0.071033 1.910515
0.071656 1.919221
0.072280 1.927963
0.072903 1.936781
0.073526 1.945713
0.074149 1.954793
0.074772 1.964051
0.075395 1.973512
0.076018 1.983195
0.076641 1.993114
0.077264 2.003277
0.077887 2.013685
0.078511 2.024337
0.079134 2.035225
0.079757 2.046337
0.080380 2.057659
0.081003 2.069175
0.081626 2.080864
0.082249 2.092709
0.082872 2.104690
0.083495 2.116787
0.084118 2.128980
0.084742 2.141251
0.085365 2.153583
0.085988 2.165958
0.086611 2.178361
0.087234 2.190776
0.087857 2.203190
0.088480 2.215589
0.089103 2.227962
0.089726 2.240297
0.090349 2.252582
0.090973 2.264809
0.091596 2.276967
0.092219 2.289048
0.092842 2.301043
0.093465 2.312943
0.094088 2.324741
0.094711 2.336429
0.095334 2.347999
0.095957 2.359445
0.096580 2.370759
0.097204 2.381934
0.097827 2.392963
0.098450 2.403839
0.099073 2.414556
0.099696 2.425105
0.100319 2.435479
0.100942 2.445673
0.101565 2.455678
0.102188 2.465487
0.102812 2.475093
0.103435 2.484489
0.104058 2.493666
0.104681 2.502618
0.105304 2.511337
0.105927 2.519816
0.106550 2.528048
0.107173 2.536025
0.107796 2.543741
0.108419 2.551189
0.109043 2.558363
0.109666 2.565258
0.110289 2.571868
0.110912 2.578188
0.111535 2.584214
0.112158 2.589944
0.112781 2.595373
0.113404 2.600502
0.114027 2.605327
0.114650 2.609848
0.115274 2.614065
0.115897 2.617980
0.116520 2.621592
0.117143 2.624903
0.117766 2.627916
0.118389 2.630633
0.119012 2.633055
0.119635 2.635185
0.120258 2.637025
0.120881 2.638579
0.121505 2.639846
0.122128 2.640830
0.122751 2.641532
0.123374 2.641953
0.123997 2.642093

0.123997 1.791630
0.124552 1.791615
0.125107 1.791572
0.125662 1.791498
0.126217 1.791396
0.126772 1.791264
0.127327 1.791103
0.127883 1.790913
0.128438 1.790693
0.128993 1.790444
0.129548 1.790166
0.130103 1.789859
0.130658 1.789523
0.131213 1.789157
0.131768 1.788763
0.132323 1.788339
0.132878 1.787886
0.133433 1.787404
0.133988 1.786893
0.134544 1.786353
0.135099 1.785785
0.135654 1.785187
0.136209 1.784561
0.136764 1.783906
0.137319 1.783222
0.137874 1.782509
0.138429 1.781768
0.138984 1.780999
0.139539 1.780201
0.140094 1.779374
0.140650 1.778520
0.141205 1.777637
0.141760 1.776726
0.142315 1.775787
0.142870 1.774820
0.143425 1.773825
0.143980 1.772803
0.144535 1.771753
0.145090 1.770676
0.145645 1.769571
0.146200 1.768439
0.146755 1.767279
0.147311 1.766093
0.147866 1.764880
0.148421 1.763640
0.148976 1.762374
0.149531 1.761081
0.150086 1.759762
0.150641 1.758417
0.151196 1.757045
0.151751 1.755648
0.152306 1.754225
0.152861 1.752777
0.153417 1.751303
0.153972 1.749804
0.154527 1.748280
0.155082 1.746731
0.155637 1.745157
0.156192 1.743559
0.156747 1.741936
0.157302 1.740289
0.157857 1.738618
0.158412 1.736923
0.158967 1.735204
0.159522 1.733461
0.160078 1.731695
0.160633 1.729905
0.161188 1.728093
0.161743 1.726257
0.162298 1.724398
0.162853 1.722517
0.163408 1.720613
0.163963 1.718686
0.164518 1.716737
0.165073 1.714766
0.165628 1.712773
0.166184 1.710757
0.166739 1.708720
0.167294 1.706661
0.167849 1.704580
0.168404 1.702478
0.168959 1.700354
0.169514 1.698209
0.170069 1.696043
0.170624 1.693855
0.171179 1.691647
0.171734 1.689417
0.172289 1.687167
0.172845 1.684895
0.173400 1.682604
0.173955 1.680291
0.174510 1.677958
0.175065 1.675605
0.175620 1.673232
0.176175 1.670838
